  0.005
  0.005
  0.005
  0.005
  0.005
  0.005
  0.005
  0.005
  0.005
  0.005
  0.005
 -0.005
 -0.005
  0.010
 -0.010
 -0.010
 -0.020
 -0.035
 -0.025
 -0.010
 -0.030
 -0.040
 -0.050
 -0.060
 -0.045
 -0.035
 -0.055
 -0.065
 -0.075
 -0.095
 -0.085
 -0.075
 -0.085
 -0.090
 -0.100
 -0.120
 -0.105
 -0.100
 -0.105
 -0.125
 -0.135
 -0.145
 -0.130
 -0.110
 -0.130
 -0.140
 -0.150
 -0.150
 -0.155
 -0.140
 -0.150
 -0.150
 -0.175
 -0.170
 -0.155
 -0.155
 -0.155
 -0.170
 -0.180
 -0.175
 -0.165
 -0.150
 -0.160
 -0.160
 -0.150
 -0.150
 -0.140
 -0.125
 -0.125
 -0.130
 -0.125
 -0.135
 -0.125
 -0.115
 -0.125
 -0.135
 -0.135
 -0.140
 -0.135
 -0.130
 -0.145
 -0.155
 -0.165
 -0.185
 -0.195
 -0.180
 -0.190
 -0.200
 -0.210
 -0.220
 -0.205
 -0.215
 -0.225
 -0.235
 -0.255
 -0.250
 -0.245
 -0.225
 -0.230
 -0.220
 -0.220
 -0.230
 -0.210
 -0.205
 -0.215
 -0.195
 -0.160
 -0.080
  0.145
  0.530
  0.805
  0.735
  0.485
  0.285
  0.240
  0.220
  0.155
  0.100
  0.035
 -0.065
 -0.155
 -0.270
 -0.415
 -0.595
 -0.765
 -0.945
 -1.060
 -1.155
 -1.240
 -1.345
 -1.455
 -1.605
 -1.755
 -1.930
 -2.100
 -2.235
 -2.360
 -2.490
 -2.595
 -2.700
 -2.790
 -2.860
 -2.930
 -3.005
 -3.045
 -3.065
 -3.095
 -3.130
 -3.155
 -3.155
 -3.145
 -3.095
 -3.030
 -2.955
 -2.825
 -2.690
 -2.525
 -2.345
 -2.150
 -1.940
 -1.710
 -1.475
 -1.240
 -0.995
 -0.800
 -0.610
 -0.445
 -0.280
 -0.085
  0.065
  0.220
  0.350
  0.460
  0.555
  0.635
  0.690
  0.740
  0.775
  0.825
  0.850
  0.905
  0.945
  0.970
  1.005
  1.045
  1.070
  1.125
  1.170
  1.195
  1.235
  1.250
  1.305
  1.355
  1.400
  1.435
  1.465
  1.505
  1.550
  1.605
  1.650
  1.680
  1.710
  1.730
  1.780
  1.830
  1.865
  1.890
  1.900
  1.920
  1.930
  1.950
  1.975
  1.955
  1.960
  1.955
  1.940
  1.945
  1.925
  1.895
  1.855
  1.820
  1.780
  1.760
  1.715
  1.655
  1.605
  1.535
  1.470
  1.430
  1.360
  1.300
  1.235
  1.155
  1.085
  1.030
  0.980
  0.910
  0.835
  0.760
  0.715
  0.655
  0.615
  0.555
  0.495
  0.445
  0.400
  0.365
  0.325
  0.275
  0.235
  0.185
  0.160
  0.150
  0.135
  0.100
  0.075
  0.045
  0.020
  0.030
  0.020
  0.000
 -0.015
 -0.020
 -0.035
 -0.035
 -0.040
 -0.050
 -0.070
 -0.070
 -0.065
 -0.070
 -0.055
 -0.070
 -0.075
 -0.080
 -0.085
 -0.070
 -0.065
 -0.070
 -0.070
 -0.080
 -0.085
 -0.075
 -0.055
 -0.060
 -0.060
 -0.065
 -0.070
 -0.060
 -0.040
 -0.035
 -0.040
 -0.040
 -0.040
 -0.040
 -0.020
 -0.020
 -0.040
 -0.030
 -0.035
 -0.015
 -0.020
 -0.020
 -0.030
 -0.025
 -0.030
 -0.035
 -0.015
 -0.020
 -0.035
 -0.045
 -0.045
 -0.035
 -0.040
 -0.045
 -0.045
 -0.060
 -0.080
 -0.065
 -0.060
 -0.065
 -0.090
 -0.095
 -0.100
 -0.095
 -0.100
 -0.105
 -0.115
 -0.135
 -0.140
 -0.135
 -0.120
 -0.135
 -0.145
 -0.155
 -0.150
 -0.150
 -0.150
 -0.155
 -0.160
 -0.170
 -0.180
 -0.170
 -0.165
 -0.180
 -0.185
 -0.190
 -0.185
 -0.185
 -0.185
 -0.195
 -0.190
 -0.205
 -0.210
 -0.205
 -0.200
 -0.210
 -0.215
 -0.220
 -0.225
 -0.215
 -0.205
 -0.220
 -0.215
 -0.235
 -0.230
 -0.220
 -0.215
 -0.215
 -0.220
 -0.225
 -0.225
 -0.220
 -0.215
 -0.220
 -0.215
 -0.245
 -0.235
 -0.230
 -0.215
 -0.230
 -0.230
 -0.245
 -0.235
 -0.230
 -0.210
 -0.215
 -0.230
 -0.230
 -0.240
 -0.220
 -0.205
 -0.205
 -0.215
 -0.210
 -0.205
 -0.170
 -0.140
 -0.135
 -0.150
 -0.130
 -0.065
  0.125
  0.490
  0.790
  0.745
  0.495
  0.320
  0.245
  0.210
  0.140
  0.075
 -0.010
 -0.110
 -0.210
 -0.350
 -0.515
 -0.695
 -0.885
 -1.105
 -1.270
 -1.405
 -1.530
 -1.660
 -1.815
 -2.015
 -2.225
 -2.420
 -2.570
 -2.710
 -2.830
 -2.935
 -3.025
 -3.085
 -3.125
 -3.170
 -3.205
 -3.220
 -3.240
 -3.220
 -3.230
 -3.245
 -3.240
 -3.210
 -3.170
 -3.095
 -2.990
 -2.875
 -2.755
 -2.590
 -2.390
 -2.175
 -1.940
 -1.720
 -1.480
 -1.200
 -0.960
 -0.745
 -0.540
 -0.340
 -0.140
  0.030
  0.190
  0.355
  0.460
  0.550
  0.635
  0.675
  0.745
  0.795
  0.840
  0.885
  0.920
  0.960
  1.010
  1.050
  1.085
  1.110
  1.140
  1.185
  1.230
  1.275
  1.300
  1.320
  1.350
  1.400
  1.435
  1.490
  1.515
  1.550
  1.570
  1.625
  1.665
  1.700
  1.735
  1.760
  1.785
  1.830
  1.860
  1.900
  1.920
  1.925
  1.935
  1.960
  1.965
  1.985
  1.980
  1.960
  1.935
  1.925
  1.915
  1.895
  1.860
  1.810
  1.760
  1.725
  1.675
  1.630
  1.555
  1.490
  1.420
  1.350
  1.300
  1.235
  1.160
  1.065
  1.000
  0.930
  0.875
  0.830
  0.760
  0.690
  0.635
  0.575
  0.540
  0.495
  0.445
  0.400
  0.340
  0.295
  0.280
  0.245
  0.205
  0.170
  0.140
  0.115
  0.110
  0.095
  0.065
  0.045
  0.030
  0.025
  0.015
  0.020
  0.005
 -0.020
 -0.035
 -0.035
 -0.040
 -0.020
 -0.040
 -0.045
 -0.050
 -0.055
 -0.045
 -0.025
 -0.035
 -0.040
 -0.050
 -0.055
 -0.035
 -0.030
 -0.025
 -0.035
 -0.035
 -0.035
 -0.030
 -0.015
 -0.020
 -0.015
 -0.030
 -0.025
 -0.005
  0.005
  0.000
 -0.010
 -0.015
 -0.030
 -0.025
 -0.005
  0.005
 -0.020
 -0.035
 -0.035
 -0.030
 -0.025
 -0.030
 -0.040
 -0.055
 -0.060
 -0.050
 -0.045
 -0.050
 -0.070
 -0.085
 -0.085
 -0.085
 -0.075
 -0.095
 -0.110
 -0.125
 -0.115
 -0.115
 -0.115
 -0.130
 -0.145
 -0.150
 -0.145
 -0.150
 -0.135
 -0.155
 -0.165
 -0.175
 -0.180
 -0.175
 -0.165
 -0.170
 -0.190
 -0.185
 -0.195
 -0.190
 -0.185
 -0.180
 -0.200
 -0.215
 -0.215
 -0.205
 -0.210
 -0.215
 -0.215
 -0.230
 -0.215
 -0.215
 -0.210
 -0.205
 -0.220
 -0.230
 -0.235
 -0.215
 -0.215
 -0.225
 -0.230
 -0.235
 -0.235
 -0.235
 -0.230
 -0.220
 -0.240
 -0.240
 -0.245
 -0.245
 -0.230
 -0.230
 -0.240
 -0.250
 -0.245
 -0.235
 -0.225
 -0.235
 -0.245
 -0.260
 -0.260
 -0.235
 -0.240
 -0.240
 -0.255
 -0.255
 -0.245
 -0.245
 -0.230
 -0.230
 -0.235
 -0.255
 -0.235
 -0.225
 -0.205
 -0.205
 -0.185
 -0.125
  0.065
  0.445
  0.835
  0.890
  0.635
  0.350
  0.220
  0.175
  0.120
  0.035
 -0.050
 -0.160
 -0.300
 -0.435
 -0.610
 -0.790
 -1.015
 -1.225
 -1.380
 -1.520
 -1.625
 -1.785
 -1.980
 -2.200
 -2.400
 -2.560
 -2.670
 -2.770
 -2.885
 -3.005
 -3.090
 -3.115
 -3.150
 -3.185
 -3.215
 -3.245
 -3.250
 -3.240
 -3.245
 -3.255
 -3.250
 -3.245
 -3.220
 -3.160
 -3.080
 -2.985
 -2.870
 -2.740
 -2.545
 -2.350
 -2.090
 -1.815
 -1.540
 -1.275
 -1.000
 -0.765
 -0.530
 -0.315
 -0.125
  0.055
  0.250
  0.400
  0.525
  0.610
  0.655
  0.700
  0.750
  0.800
  0.840
  0.880
  0.905
  0.920
  0.960
  0.995
  1.030
  1.045
  1.080
  1.090
  1.135
  1.170
  1.195
  1.215
  1.265
  1.270
  1.325
  1.355
  1.400
  1.430
  1.460
  1.485
  1.525
  1.570
  1.620
  1.640
  1.670
  1.700
  1.740
  1.775
  1.825
  1.855
  1.875
  1.880
  1.910
  1.940
  1.955
  1.970
  1.955
  1.960
  1.955
  1.970
  1.945
  1.935
  1.905
  1.860
  1.830
  1.800
  1.775
  1.720
  1.650
  1.590
  1.525
  1.470
  1.420
  1.340
  1.250
  1.185
  1.120
  1.050
  0.990
  0.915
  0.840
  0.770
  0.705
  0.660
  0.610
  0.550
  0.490
  0.440
  0.385
  0.355
  0.325
  0.280
  0.245
  0.200
  0.185
  0.155
  0.145
  0.130
  0.110
  0.080
  0.065
  0.065
  0.055
  0.050
  0.025
  0.010
 -0.005
  0.005
  0.010
  0.005
  0.005
 -0.005
  0.000
  0.000
  0.005
  0.000
 -0.005
 -0.020
 -0.010
 -0.005
  0.000
  0.005
 -0.010
 -0.010
 -0.010
  0.000
  0.000
 -0.005
 -0.015
 -0.010
 -0.015
 -0.015
 -0.005
 -0.010
 -0.020
 -0.025
 -0.040
 -0.025
 -0.015
 -0.020
 -0.050
 -0.065
 -0.060
 -0.060
 -0.055
 -0.055
 -0.075
 -0.100
 -0.100
 -0.085
 -0.090
 -0.105
 -0.110
 -0.120
 -0.125
 -0.115
 -0.125
 -0.120
 -0.125
 -0.140
 -0.160
 -0.145
 -0.160
 -0.155
 -0.175
 -0.180
 -0.180
 -0.175
 -0.165
 -0.180
 -0.185
 -0.205
 -0.205
 -0.190
 -0.195
 -0.200
 -0.210
 -0.220
 -0.205
 -0.205
 -0.200
 -0.215
 -0.215
 -0.230
 -0.230
 -0.220
 -0.215
 -0.215
 -0.235
 -0.250
 -0.245
 -0.235
 -0.235
 -0.230
 -0.240
 -0.255
 -0.245
 -0.245
 -0.240
 -0.250
 -0.250
 -0.265
 -0.255
 -0.240
 -0.240
 -0.255
 -0.255
 -0.275
 -0.260
 -0.250
 -0.240
 -0.240
 -0.255
 -0.275
 -0.265
 -0.255
 -0.260
 -0.250
 -0.255
 -0.270
 -0.270
 -0.250
 -0.240
 -0.255
 -0.260
 -0.265
 -0.260
 -0.250
 -0.240
 -0.250
 -0.255
 -0.270
 -0.265
 -0.250
 -0.235
 -0.235
 -0.255
 -0.255
 -0.250
 -0.235
 -0.185
 -0.130
  0.075
  0.440
  0.720
  0.665
  0.410
  0.235
  0.160
  0.095
  0.045
 -0.025
 -0.105
 -0.235
 -0.375
 -0.530
 -0.705
 -0.900
 -1.095
 -1.290
 -1.600
 -1.730
 -1.865
 -2.015
 -2.205
 -2.430
 -2.590
 -2.705
 -2.790
 -2.875
 -2.980
 -3.070
 -3.145
 -3.170
 -3.195
 -3.205
 -3.240
 -3.255
 -3.280
 -3.275
 -3.250
 -3.260
 -3.245
 -3.235
 -3.235
 -3.195
 -3.120
 -3.025
 -2.900
 -2.770
 -2.610
 -2.405
 -2.175
 -1.925
 -1.685
 -1.440
 -1.185
 -0.935
 -0.710
 -0.495
 -0.300
 -0.145
  0.005
  0.175
  0.320
  0.455
  0.535
  0.590
  0.635
  0.695
  0.735
  0.770
  0.790
  0.815
  0.830
  0.870
  0.895
  0.925
  0.960
  0.975
  1.010
  1.045
  1.085
  1.115
  1.135
  1.150
  1.155
  1.190
  1.230
  1.255
  1.290
  1.310
  1.330
  1.360
  1.405
  1.435
  1.480
  1.490
  1.500
  1.540
  1.580
  1.625
  1.635
  1.645
  1.665
  1.705
  1.750
  1.775
  1.785
  1.800
  1.810
  1.825
  1.850
  1.865
  1.875
  1.870
  1.850
  1.860
  1.860
  1.865
  1.860
  1.830
  1.795
  1.770
  1.765
  1.735
  1.695
  1.645
  1.590
  1.540
  1.495
  1.455
  1.385
  1.325
  1.245
  1.205
  1.145
  1.095
  1.040
  0.960
  0.885
  0.845
  0.790
  0.750
  0.690
  0.615
  0.555
  0.505
  0.465
  0.425
  0.385
  0.335
  0.290
  0.255
  0.240
  0.215
  0.190
  0.155
  0.110
  0.100
  0.090
  0.080
  0.065
  0.030
  0.015
  0.000
 -0.005
 -0.005
 -0.010
 -0.030
 -0.040
 -0.030
 -0.035
 -0.030
 -0.040
 -0.050
 -0.060
 -0.050
 -0.040
 -0.035
 -0.045
 -0.045
 -0.055
 -0.050
 -0.050
 -0.035
 -0.035
 -0.050
 -0.040
 -0.050
 -0.045
 -0.040
 -0.030
 -0.065
 -0.060
 -0.050
 -0.040
 -0.040
 -0.040
 -0.055
 -0.070
 -0.055
 -0.055
 -0.045
 -0.045
 -0.065
 -0.080
 -0.085
 -0.070
 -0.065
 -0.080
 -0.090
 -0.105
 -0.105
 -0.095
 -0.095
 -0.105
 -0.115
 -0.130
 -0.140
 -0.125
 -0.135
 -0.135
 -0.145
 -0.160
 -0.160
 -0.155
 -0.160
 -0.170
 -0.165
 -0.180
 -0.190
 -0.195
 -0.175
 -0.175
 -0.205
 -0.205
 -0.215
 -0.210
 -0.200
 -0.200
 -0.220
 -0.225
 -0.230
 -0.210
 -0.205
 -0.210
 -0.240
 -0.250
 -0.240
 -0.230
 -0.230
 -0.230
 -0.250
 -0.255
 -0.245
 -0.245
 -0.245
 -0.240
 -0.265
 -0.260
 -0.255
 -0.250
 -0.245
 -0.245
 -0.255
 -0.270
 -0.270
 -0.275
 -0.250
 -0.255
 -0.260
 -0.280
 -0.275
 -0.260
 -0.265
 -0.260
 -0.270
 -0.280
 -0.275
 -0.270
 -0.265
 -0.270
 -0.285
 -0.290
 -0.280
 -0.270
 -0.265
 -0.265
 -0.285
 -0.280
 -0.285
 -0.265
 -0.265
 -0.265
 -0.265
 -0.285
 -0.275
 -0.265
 -0.255
 -0.270
 -0.280
 -0.290
 -0.265
 -0.270
 -0.265
 -0.260
 -0.275
 -0.280
 -0.270
 -0.265
 -0.255
 -0.265
 -0.260
 -0.260
 -0.215
 -0.165
 -0.020
  0.250
  0.630
  0.850
  0.755
  0.510
  0.330
  0.240
  0.170
  0.125
  0.060
  0.015
 -0.055
 -0.160
 -0.295
 -0.430
 -0.575
 -0.740
 -0.905
 -1.095
 -1.255
 -1.415
 -1.550
 -1.670
 -1.805
 -1.970
 -2.165
 -2.385
 -2.560
 -2.660
 -2.755
 -2.845
 -2.960
 -3.050
 -3.125
 -3.150
 -3.180
 -3.210
 -3.240
 -3.270
 -3.265
 -3.260
 -3.255
 -3.265
 -3.270
 -3.270
 -3.245
 -3.210
 -3.155
 -3.085
 -3.005
 -2.920
 -2.780
 -2.615
 -2.465
 -2.285
 -2.110
 -1.905
 -1.670
 -1.425
 -1.185
 -0.970
 -0.785
 -0.610
 -0.400
 -0.220
 -0.055
  0.110
  0.250
  0.385
  0.515
  0.615
  0.690
  0.745
  0.785
  0.825
  0.865
  0.915
  0.960
  0.990
  1.010
  1.030
  1.065
  1.110
  1.145
  1.160
  1.180
  1.185
  1.235
  1.250
  1.285
  1.290
  1.300
  1.310
  1.340
  1.365
  1.390
  1.410
  1.425
  1.455
  1.500
  1.545
  1.585
  1.635
  1.660
  1.685
  1.710
  1.755
  1.780
  1.805
  1.825
  1.825
  1.855
  1.890
  1.905
  1.920
  1.920
  1.905
  1.905
  1.915
  1.910
  1.890
  1.855
  1.820
  1.805
  1.785
  1.745
  1.700
  1.645
  1.595
  1.550
  1.505
  1.470
  1.390
  1.335
  1.250
  1.190
  1.135
  1.085
  1.020
  0.945
  0.870
  0.805
  0.745
  0.705
  0.635
  0.565
  0.505
  0.465
  0.430
  0.385
  0.345
  0.280
  0.245
  0.210
  0.190
  0.170
  0.135
  0.090
  0.075
  0.040
  0.050
  0.035
  0.020
  0.000
 -0.030
 -0.035
 -0.030
 -0.025
 -0.040
 -0.055
 -0.065
 -0.055
 -0.045
 -0.045
 -0.050
 -0.065
 -0.075
 -0.065
 -0.050
 -0.045
 -0.045
 -0.065
 -0.075
 -0.050
 -0.045
 -0.040
 -0.045
 -0.055
 -0.075
 -0.065
 -0.050
 -0.055
 -0.055
 -0.060
 -0.070
 -0.055
 -0.055
 -0.055
 -0.060
 -0.060
 -0.085
 -0.085
 -0.080
 -0.075
 -0.080
 -0.100
 -0.110
 -0.110
 -0.090
 -0.090
 -0.090
 -0.135
 -0.140
 -0.125
 -0.125
 -0.130
 -0.140
 -0.145
 -0.175
 -0.170
 -0.155
 -0.160
 -0.175
 -0.185
 -0.205
 -0.195
 -0.195
 -0.190
 -0.190
 -0.205
 -0.215
 -0.210
 -0.210
 -0.220
 -0.215
 -0.220
 -0.240
 -0.235
 -0.240
 -0.230
 -0.230
 -0.245
 -0.250
 -0.250
 -0.240
 -0.250
 -0.240
 -0.245
 -0.260
 -0.255
 -0.255
 -0.240
 -0.240
 -0.260
 -0.265
 -0.270
 -0.255
 -0.260
 -0.255
 -0.260
 -0.275
 -0.265
 -0.265
 -0.260
 -0.260
 -0.285
 -0.285
 -0.280
 -0.275
 -0.270
 -0.265
 -0.285
 -0.285
 -0.285
 -0.280
 -0.260
 -0.260
 -0.280
 -0.285
 -0.275
 -0.270
 -0.260
 -0.260
 -0.255
 -0.275
 -0.275
 -0.260
 -0.260
 -0.255
 -0.260
 -0.280
 -0.285
 -0.265
 -0.255
 -0.260
 -0.260
 -0.270
 -0.270
 -0.270
 -0.255
 -0.255
 -0.260
 -0.270
 -0.245
 -0.230
 -0.225
 -0.200
 -0.165
 -0.045
  0.240
  0.615
  0.830
  0.705
  0.430
  0.245
  0.180
  0.130
  0.075
  0.000
 -0.080
 -0.200
 -0.305
 -0.425
 -0.585
 -0.760
 -0.980
 -1.175
 -1.350
 -1.475
 -1.595
 -1.725
 -1.875
 -2.075
 -2.260
 -2.435
 -2.580
 -2.710
 -2.815
 -2.920
 -2.995
 -3.070
 -3.130
 -3.165
 -3.200
 -3.225
 -3.250
 -3.240
 -3.245
 -3.245
 -3.265
 -3.260
 -3.250
 -3.235
 -3.210
 -3.200
 -3.165
 -3.110
 -3.030
 -2.900
 -2.770
 -2.610
 -2.440
 -2.235
 -1.980
 -1.715
 -1.450
 -1.195
 -0.965
 -0.745
 -0.505
 -0.285
 -0.085
  0.100
  0.265
  0.420
  0.560
  0.660
  0.735
  0.785
  0.820
  0.850
  0.895
  0.945
  0.980
  1.020
  1.040
  1.060
  1.095
  1.135
  1.165
  1.190
  1.225
  1.235
  1.275
  1.315
  1.340
  1.385
  1.400
  1.435
  1.470
  1.515
  1.540
  1.585
  1.620
  1.640
  1.670
  1.720
  1.765
  1.780
  1.805
  1.835
  1.870
  1.915
  1.940
  1.955
  1.975
  1.995
  2.030
  2.040
  2.060
  2.075
  2.060
  2.065
  2.060
  2.070
  2.070
  2.035
  2.005
  1.970
  1.950
  1.930
  1.875
  1.825
  1.775
  1.700
  1.660
  1.610
  1.535
  1.470
  1.395
  1.310
  1.220
  1.145
  1.070
  0.980
  0.895
  0.815
  0.735
  0.680
  0.635
  0.550
  0.490
  0.425
  0.380
  0.360
  0.340
  0.305
  0.255
  0.220
  0.190
  0.180
  0.160
  0.135
  0.105
  0.080
  0.065
  0.070
  0.075
  0.050
  0.045
  0.020
  0.025
  0.020
  0.030
  0.025
  0.010
 -0.005
  0.000
  0.005
  0.015
  0.015
  0.005
  0.015
  0.010
  0.020
  0.020
  0.015
  0.025
 -0.005
  0.005
  0.030
  0.030
  0.030
  0.015
 -0.005
  0.015
  0.025
  0.015
  0.030
  0.010
  0.000
 -0.005
  0.000
  0.010
 -0.005
 -0.015
 -0.030
 -0.020
 -0.010
 -0.015
 -0.035
 -0.040
 -0.055
 -0.055
 -0.045
 -0.045
 -0.055
 -0.075
 -0.080
 -0.075
 -0.075
 -0.070
 -0.085
 -0.090
 -0.100
 -0.095
 -0.095
 -0.100
 -0.105
 -0.115
 -0.120
 -0.120
 -0.110
 -0.115
 -0.110
 -0.130
 -0.140
 -0.130
 -0.110
 -0.115
 -0.115
 -0.135
 -0.145
 -0.155
 -0.135
 -0.135
 -0.135
 -0.140
 -0.160
 -0.145
 -0.140
 -0.140
 -0.140
 -0.150
 -0.160
 -0.165
 -0.145
 -0.145
 -0.135
 -0.155
 -0.165
 -0.150
 -0.150
 -0.145
 -0.140
 -0.165
 -0.170
 -0.165
 -0.150
 -0.155
 -0.165
 -0.165
 -0.170
 -0.160
 -0.150
 -0.150
 -0.155
 -0.165
 -0.170
 -0.170
 -0.160
 -0.165
 -0.150
 -0.160
 -0.185
 -0.175
 -0.180
 -0.155
 -0.160
 -0.175
 -0.180
 -0.185
 -0.160
 -0.160
 -0.165
 -0.180
 -0.185
 -0.170
 -0.170
 -0.150
 -0.160
 -0.155
 -0.160
 -0.150
 -0.115
 -0.030
  0.185
  0.590
  0.845
  0.770
  0.515
  0.335
  0.265
  0.195
  0.125
  0.055
 -0.025
 -0.150
 -0.300
 -0.470
 -0.655
 -0.845
 -1.050
 -1.255
 -1.425
 -1.585
 -1.730
 -1.865
 -2.010
 -2.190
 -2.410
 -2.590
 -2.720
 -2.805
 -2.875
 -2.960
 -3.025
 -3.090
 -3.125
 -3.140
 -3.145
 -3.160
 -3.180
 -3.190
 -3.190
 -3.180
 -3.180
 -3.160
 -3.160
 -3.135
 -3.095
 -3.005
 -2.900
 -2.760
 -2.590
 -2.395
 -2.160
 -1.875
 -1.590
 -1.320
 -1.035
 -0.780
 -0.545
 -0.315
 -0.085
  0.100
  0.285
  0.435
  0.555
  0.675
  0.750
  0.815
  0.850
  0.885
  0.925
  0.975
  1.015
  1.050
  1.090
  1.115
  1.140
  1.170
  1.220
  1.245
  1.270
  1.285
  1.315
  1.370
  1.400
  1.435
  1.475
  1.505
  1.535
  1.570
  1.610
  1.650
  1.680
  1.700
  1.735
  1.775
  1.820
  1.855
  1.890
  1.930
  1.935
  1.960
  2.005
  2.015
  2.035
  2.045
  2.025
  2.050
  2.065
  2.060
  2.045
  2.030
  2.000
  1.975
  1.965
  1.945
  1.900
  1.845
  1.785
  1.765
  1.720
  1.675
  1.610
  1.545
  1.470
  1.410
  1.345
  1.265
  1.200
  1.105
  1.010
  0.955
  0.885
  0.830
  0.750
  0.670
  0.605
  0.555
  0.505
  0.465
  0.410
  0.350
  0.305
  0.275
  0.250
  0.235
  0.195
  0.180
  0.145
  0.145
  0.140
  0.125
  0.090
  0.075
  0.055
  0.060
  0.065
  0.065
  0.040
  0.035
  0.020
  0.025
  0.025
  0.020
  0.025
  0.010
  0.000
  0.005
  0.010
  0.025
  0.015
  0.000
  0.005
  0.015
  0.015
  0.030
  0.030
  0.020
  0.030
  0.020
  0.035
  0.035
  0.035
  0.020
  0.015
  0.025
  0.030
  0.025
  0.025
  0.005
 -0.015
  0.015
  0.015
  0.010
  0.000
 -0.015
 -0.025
 -0.025
 -0.010
 -0.015
 -0.020
 -0.035
 -0.050
 -0.040
 -0.055
 -0.045
 -0.055
 -0.080
 -0.075
 -0.075
 -0.070
 -0.070
 -0.080
 -0.095
 -0.090
 -0.100
 -0.095
 -0.100
 -0.100
 -0.120
 -0.130
 -0.120
 -0.125
 -0.115
 -0.125
 -0.140
 -0.135
 -0.135
 -0.140
 -0.145
 -0.135
 -0.140
 -0.150
 -0.150
 -0.145
 -0.150
 -0.150
 -0.155
 -0.155
 -0.150
 -0.145
 -0.155
 -0.140
 -0.160
 -0.160
 -0.170
 -0.160
 -0.150
 -0.160
 -0.160
 -0.180
 -0.170
 -0.160
 -0.170
 -0.165
 -0.170
 -0.180
 -0.170
 -0.150
 -0.160
 -0.165
 -0.170
 -0.180
 -0.175
 -0.165
 -0.165
 -0.170
 -0.175
 -0.185
 -0.175
 -0.175
 -0.170
 -0.170
 -0.175
 -0.185
 -0.180
 -0.175
 -0.170
 -0.175
 -0.180
 -0.195
 -0.180
 -0.165
 -0.160
 -0.170
 -0.170
 -0.175
 -0.170
 -0.150
 -0.140
 -0.110
 -0.095
  0.005
  0.275
  0.705
  0.955
  0.805
  0.500
  0.335
  0.265
  0.235
  0.175
  0.090
 -0.010
 -0.150
 -0.300
 -0.450
 -0.625
 -0.835
 -1.060
 -1.265
 -1.420
 -1.560
 -1.690
 -1.850
 -2.035
 -2.265
 -2.465
 -2.590
 -2.695
 -2.790
 -2.900
 -3.005
 -3.065
 -3.095
 -3.125
 -3.150
 -3.175
 -3.195
 -3.190
 -3.180
 -3.175
 -3.160
 -3.155
 -3.145
 -3.105
 -3.030
 -2.925
 -2.810
 -2.650
 -2.480
 -2.250
 -1.990
 -1.720
 -1.430
 -1.160
 -0.915
 -0.675
 -0.425
 -0.200
 -0.010
  0.175
  0.370
  0.530
  0.645
  0.720
  0.780
  0.815
  0.850
  0.905
  0.950
  0.985
  1.020
  1.055
  1.065
  1.115
  1.155
  1.195
  1.235
  1.240
  1.265
  1.320
  1.355
  1.400
  1.430
  1.445
  1.485
  1.530
  1.565
  1.615
  1.645
  1.670
  1.705
  1.740
  1.785
  1.810
  1.855
  1.875
  1.890
  1.915
  1.965
  1.990
  1.995
  2.010
  2.000
  2.020
  2.025
  2.040
  2.020
  1.990
  1.980
  1.960
  1.945
  1.915
  1.870
  1.825
  1.775
  1.730
  1.685
  1.625
  1.560
  1.480
  1.410
  1.355
  1.300
  1.215
  1.160
  1.075
  0.985
  0.940
  0.880
  0.815
  0.750
  0.675
  0.615
  0.570
  0.520
  0.480
  0.430
  0.380
  0.335
  0.310
  0.290
  0.250
  0.225
  0.195
  0.165
  0.150
  0.135
  0.130
  0.115
  0.090
  0.070
  0.070
  0.070
  0.070
  0.055
  0.050
  0.040
  0.045
  0.040
  0.060
  0.045
  0.040
  0.030
  0.030
  0.050
  0.040
  0.040
  0.035
  0.025
  0.035
  0.040
  0.050
  0.055
  0.045
  0.040
  0.045
  0.060
  0.065
  0.075
  0.080
  0.060
  0.075
  0.090
  0.090
  0.095
  0.065
  0.060
  0.075
  0.085
  0.075
  0.070
  0.050
  0.030
  0.030
  0.030
  0.020
 -0.005
 -0.025
 -0.050
 -0.050
 -0.055
 -0.070
 -0.080
 -0.095
 -0.130
 -0.130
 -0.120
 -0.120
 -0.125
 -0.130
 -0.140
 -0.120
 -0.120
 -0.120
 -0.130
 -0.140
 -0.145
 -0.150
 -0.140
 -0.140
 -0.135
 -0.155
 -0.170
 -0.155
 -0.160
 -0.145
 -0.165
 -0.165
 -0.175
 -0.165
 -0.170
 -0.165
 -0.175
 -0.185
 -0.190
 -0.185
 -0.170
 -0.165
 -0.185
 -0.195
 -0.205
 -0.190
 -0.185
 -0.180
 -0.190
 -0.185
 -0.200
 -0.190
 -0.170
 -0.175
 -0.175
 -0.195
 -0.200
 -0.190
 -0.185
 -0.180
 -0.180
 -0.195
 -0.215
 -0.190
 -0.185
 -0.180
 -0.170
 -0.185
 -0.190
 -0.195
 -0.185
 -0.175
 -0.180
 -0.195
 -0.190
 -0.180
 -0.175
 -0.175
 -0.175
 -0.190
 -0.200
 -0.195
 -0.170
 -0.175
 -0.165
 -0.185
 -0.180
 -0.165
 -0.140
 -0.120
 -0.095
 -0.055
  0.080
  0.355
  0.680
  0.730
  0.515
  0.300
  0.205
  0.160
  0.110
  0.055
 -0.060
 -0.190
 -0.350
 -0.520
 -0.695
 -0.905
 -1.120
 -1.350
 -1.535
 -1.685
 -1.830
 -1.970
 -2.125
 -2.300
 -2.455
 -2.570
 -2.650
 -2.715
 -2.795
 -2.900
 -2.980
 -3.005
 -3.025
 -3.055
 -3.090
 -3.120
 -3.135
 -3.140
 -3.140
 -3.125
 -3.105
 -3.100
 -3.070
 -3.010
 -2.915
 -2.820
 -2.725
 -2.615
 -2.500
 -2.350
 -2.170
 -1.950
 -1.705
 -1.480
 -1.240
 -1.010
 -0.760
 -0.545
 -0.325
 -0.135
  0.035
  0.210
  0.375
  0.530
  0.640
  0.720
  0.785
  0.855
  0.920
  0.965
  1.005
  1.045
  1.080
  1.135
  1.190
  1.230
  1.270
  1.305
  1.335
  1.375
  1.435
  1.480
  1.510
  1.545
  1.575
  1.635
  1.685
  1.725
  1.770
  1.790
  1.830
  1.865
  1.910
  1.940
  1.975
  2.005
  2.015
  2.065
  2.080
  2.105
  2.115
  2.115
  2.125
  2.145
  2.160
  2.170
  2.155
  2.130
  2.100
  2.085
  2.065
  2.040
  2.010
  1.950
  1.900
  1.865
  1.820
  1.770
  1.710
  1.635
  1.575
  1.525
  1.470
  1.400
  1.340
  1.250
  1.195
  1.125
  1.065
  1.010
  0.935
  0.865
  0.805
  0.755
  0.700
  0.650
  0.585
  0.540
  0.470
  0.435
  0.420
  0.380
  0.350
  0.305
  0.265
  0.240
  0.230
  0.205
  0.190
  0.160
  0.135
  0.115
  0.125
  0.095
  0.075
  0.055
  0.045
  0.045
  0.045
  0.025
  0.035
  0.010
  0.005
  0.005
  0.005
  0.010
 -0.010
 -0.020
 -0.015
 -0.010
  0.000
  0.010
 -0.010
 -0.015
 -0.020
 -0.015
  0.005
  0.000
 -0.005
  0.000
 -0.015
  0.000
  0.005
  0.000
  0.000
  0.000
 -0.010
  0.005
  0.015
  0.010
  0.020
  0.000
 -0.005
  0.000
  0.005
  0.010
  0.000
 -0.005
 -0.020
 -0.010
 -0.005
 -0.010
 -0.025
 -0.020
 -0.040
 -0.030
 -0.030
 -0.035
 -0.040
 -0.055
 -0.065
 -0.065
 -0.060
 -0.060
 -0.070
 -0.080
 -0.090
 -0.080
 -0.085
 -0.085
 -0.090
 -0.105
 -0.115
 -0.110
 -0.095
 -0.100
 -0.105
 -0.120
 -0.130
 -0.125
 -0.105
 -0.110
 -0.110
 -0.130
 -0.125
 -0.105
 -0.105
 -0.100
 -0.100
 -0.105
 -0.105
 -0.105
 -0.090
 -0.090
 -0.095
 -0.105
 -0.120
 -0.120
 -0.125
 -0.120
 -0.140
 -0.160
 -0.170
 -0.175
 -0.180
 -0.190
 -0.210
 -0.225
 -0.240
 -0.225
 -0.235
 -0.240
 -0.245
 -0.260
 -0.265
 -0.240
 -0.220
 -0.215
 -0.220
 -0.225
 -0.235
 -0.220
 -0.215
 -0.215
 -0.200
 -0.225
 -0.225
 -0.215
 -0.210
 -0.210
 -0.200
 -0.215
 -0.225
 -0.200
 -0.190
 -0.190
 -0.190
 -0.195
 -0.185
 -0.170
 -0.130
 -0.080
  0.020
  0.220
  0.550
  0.825
  0.760
  0.495
  0.310
  0.225
  0.195
  0.155
  0.135
  0.100
  0.055
 -0.010
 -0.125
 -0.250
 -0.425
 -0.620
 -0.855
 -1.090
 -1.340
 -1.580
 -1.785
 -1.975
 -2.100
 -2.220
 -2.325
 -2.400
 -2.505
 -2.610
 -2.735
 -2.860
 -2.925
 -2.970
 -3.015
 -3.055
 -3.105
 -3.145
 -3.165
 -3.165
 -3.165
 -3.160
 -3.170
 -3.170
 -3.145
 -3.095
 -3.035
 -2.960
 -2.870
 -2.770
 -2.640
 -2.490
 -2.335
 -2.130
 -1.900
 -1.670
 -1.405
 -1.165
 -0.915
 -0.675
 -0.430
 -0.225
 -0.040
  0.140
  0.320
  0.480
  0.630
  0.725
  0.790
  0.870
  0.935
  0.990
  1.035
  1.075
  1.115
  1.165
  1.220
  1.270
  1.310
  1.345
  1.385
  1.450
  1.500
  1.545
  1.580
  1.630
  1.660
  1.720
  1.770
  1.815
  1.850
  1.885
  1.915
  1.970
  2.010
  2.045
  2.070
  2.090
  2.125
  2.160
  2.180
  2.200
  2.200
  2.195
  2.205
  2.210
  2.210
  2.205
  2.190
  2.155
  2.120
  2.095
  2.070
  2.025
  1.985
  1.930
  1.880
  1.815
  1.760
  1.715
  1.640
  1.570
  1.490
  1.420
  1.360
  1.285
  1.200
  1.110
  1.040
  0.960
  0.900
  0.840
  0.770
  0.695
  0.625
  0.580
  0.520
  0.475
  0.425
  0.375
  0.315
  0.285
  0.255
  0.220
  0.185
  0.155
  0.110
  0.110
  0.095
  0.070
  0.055
  0.025
  0.000
  0.000
  0.000
 -0.005
 -0.015
 -0.030
 -0.040
 -0.055
 -0.035
 -0.040
 -0.040
 -0.065
 -0.070
 -0.075
 -0.065
 -0.060
 -0.075
 -0.075
 -0.080
 -0.075
 -0.065
 -0.060
 -0.055
 -0.070
 -0.085
 -0.070
 -0.060
 -0.055
 -0.040
 -0.060
 -0.065
 -0.070
 -0.040
 -0.035
 -0.050
 -0.040
 -0.055
 -0.035
 -0.020
 -0.035
 -0.025
 -0.035
 -0.035
 -0.035
 -0.025
 -0.030
 -0.040
 -0.050
 -0.055
 -0.060
 -0.040
 -0.050
 -0.050
 -0.065
 -0.075
 -0.075
 -0.070
 -0.065
 -0.090
 -0.105
 -0.110
 -0.120
 -0.105
 -0.110
 -0.115
 -0.125
 -0.130
 -0.130
 -0.120
 -0.125
 -0.135
 -0.150
 -0.165
 -0.160
 -0.150
 -0.155
 -0.175
 -0.190
 -0.190
 -0.180
 -0.175
 -0.180
 -0.200
 -0.210
 -0.205
 -0.210
 -0.200
 -0.205
 -0.200
 -0.215
 -0.225
 -0.220
 -0.205
 -0.205
 -0.210
 -0.230
 -0.225
 -0.230
 -0.215
 -0.220
 -0.215
 -0.215
 -0.240
 -0.230
 -0.220
 -0.210
 -0.230
 -0.235
 -0.240
 -0.235
 -0.230
 -0.225
 -0.235
 -0.230
 -0.235
 -0.220
 -0.210
 -0.200
 -0.195
 -0.195
 -0.200
 -0.185
 -0.170
 -0.170
 -0.170
 -0.190
 -0.190
 -0.180
 -0.175
 -0.165
 -0.175
 -0.195
 -0.210
 -0.215
 -0.195
 -0.200
 -0.185
 -0.185
 -0.135
  0.000
  0.270
  0.665
  0.835
  0.660
  0.370
  0.215
  0.155
  0.090
  0.020
 -0.070
 -0.135
 -0.250
 -0.385
 -0.540
 -0.705
 -0.905
 -1.130
 -1.320
 -1.465
 -1.585
 -1.705
 -1.865
 -2.045
 -2.225
 -2.400
 -2.560
 -2.680
 -2.790
 -2.905
 -2.980
 -3.055
 -3.105
 -3.140
 -3.185
 -3.220
 -3.240
 -3.235
 -3.255
 -3.255
 -3.265
 -3.265
 -3.250
 -3.205
 -3.150
 -3.080
 -2.985
 -2.860
 -2.700
 -2.545
 -2.330
 -2.120
 -1.910
 -1.680
 -1.430
 -1.180
 -0.955
 -0.755
 -0.560
 -0.360
 -0.160
  0.020
  0.180
  0.325
  0.430
  0.545
  0.620
  0.700
  0.745
  0.795
  0.820
  0.865
  0.925
  0.965
  0.995
  1.030
  1.055
  1.080
  1.125
  1.170
  1.215
  1.245
  1.275
  1.300
  1.360
  1.400
  1.435
  1.475
  1.500
  1.530
  1.585
  1.640
  1.675
  1.690
  1.720
  1.745
  1.785
  1.815
  1.845
  1.870
  1.880
  1.885
  1.915
  1.935
  1.955
  1.950
  1.940
  1.950
  1.945
  1.955
  1.930
  1.915
  1.880
  1.850
  1.825
  1.790
  1.745
  1.700
  1.645
  1.595
  1.545
  1.495
  1.445
  1.365
  1.305
  1.220
  1.160
  1.100
  1.040
  0.960
  0.880
  0.810
  0.750
  0.710
  0.655
  0.580
  0.530
  0.460
  0.420
  0.375
  0.325
  0.295
  0.250
  0.205
  0.195
  0.165
  0.145
  0.115
  0.090
  0.065
  0.065
  0.055
  0.035
  0.000
  0.000
 -0.015
 -0.025
 -0.025
 -0.025
 -0.030
 -0.055
 -0.065
 -0.070
 -0.045
 -0.060
 -0.065
 -0.075
 -0.075
 -0.070
 -0.050
 -0.055
 -0.060
 -0.060
 -0.080
 -0.055
 -0.055
 -0.055
 -0.050
 -0.060
 -0.050
 -0.050
 -0.040
 -0.045
 -0.030
 -0.055
 -0.055
 -0.045
 -0.025
 -0.025
 -0.035
 -0.040
 -0.055
 -0.055
 -0.035
 -0.030
 -0.040
 -0.045
 -0.055
 -0.050
 -0.040
 -0.035
 -0.045
 -0.055
 -0.070
 -0.060
 -0.055
 -0.055
 -0.070
 -0.090
 -0.090
 -0.085
 -0.075
 -0.080
 -0.090
 -0.100
 -0.110
 -0.110
 -0.105
 -0.110
 -0.120
 -0.135
 -0.140
 -0.135
 -0.125
 -0.140
 -0.145
 -0.155
 -0.170
 -0.155
 -0.160
 -0.155
 -0.160
 -0.175
 -0.170
 -0.170
 -0.175
 -0.175
 -0.175
 -0.195
 -0.200
 -0.180
 -0.185
 -0.185
 -0.195
 -0.215
 -0.210
 -0.190
 -0.190
 -0.205
 -0.200
 -0.220
 -0.230
 -0.215
 -0.195
 -0.205
 -0.210
 -0.230
 -0.235
 -0.220
 -0.210
 -0.215
 -0.210
 -0.220
 -0.235
 -0.220
 -0.215
 -0.215
 -0.215
 -0.235
 -0.240
 -0.225
 -0.215
 -0.220
 -0.215
 -0.235
 -0.240
 -0.235
 -0.210
 -0.225
 -0.215
 -0.230
 -0.225
 -0.225
 -0.215
 -0.215
 -0.220
 -0.220
 -0.220
 -0.210
 -0.190
 -0.185
 -0.185
 -0.175
 -0.175
 -0.160
 -0.145
 -0.145
 -0.145
 -0.155
 -0.140
 -0.085
  0.080
  0.415
  0.745
  0.745
  0.515
  0.310
  0.245
  0.200
  0.125
  0.045
 -0.020
 -0.110
 -0.220
 -0.365
 -0.540
 -0.730
 -0.915
 -1.125
 -1.285
 -1.425
 -1.580
 -1.730
 -1.890
 -2.050
 -2.235
 -2.440
 -2.620
 -2.740
 -2.835
 -2.940
 -3.025
 -3.095
 -3.145
 -3.185
 -3.225
 -3.245
 -3.235
 -3.240
 -3.255
 -3.270
 -3.270
 -3.250
 -3.235
 -3.205
 -3.190
 -3.150
 -3.075
 -2.960
 -2.840
 -2.730
 -2.565
 -2.415
 -2.220
 -2.015
 -1.800
 -1.580
 -1.325
 -1.115
 -0.905
 -0.685
 -0.480
 -0.295
 -0.115
  0.035
  0.195
  0.335
  0.475
  0.565
  0.635
  0.700
  0.740
  0.795
  0.850
  0.890
  0.940
  0.950
  0.995
  1.045
  1.090
  1.105
  1.135
  1.165
  1.180
  1.235
  1.270
  1.305
  1.330
  1.355
  1.385
  1.425
  1.480
  1.495
  1.530
  1.540
  1.565
  1.610
  1.645
  1.685
  1.705
  1.730
  1.745
  1.790
  1.825
  1.850
  1.875
  1.875
  1.910
  1.935
  1.955
  1.970
  1.975
  1.975
  1.975
  1.990
  1.995
  1.995
  1.990
  1.970
  1.945
  1.930
  1.920
  1.890
  1.855
  1.810
  1.765
  1.730
  1.695
  1.655
  1.595
  1.525
  1.465
  1.425
  1.355
  1.305
  1.230
  1.155
  1.095
  1.055
  1.000
  0.955
  0.895
  0.820
  0.760
  0.705
  0.660
  0.605
  0.555
  0.490
  0.440
  0.415
  0.385
  0.350
  0.300
  0.260
  0.215
  0.195
  0.185
  0.155
  0.120
  0.085
  0.065
  0.055
  0.050
  0.030
  0.015
 -0.010
 -0.015
 -0.025
 -0.025
 -0.030
 -0.040
 -0.060
 -0.075
 -0.070
 -0.060
 -0.075
 -0.075
 -0.075
 -0.095
 -0.075
 -0.060
 -0.070
 -0.065
 -0.075
 -0.070
 -0.065
 -0.060
 -0.055
 -0.055
 -0.060
 -0.070
 -0.060
 -0.030
 -0.040
 -0.045
 -0.045
 -0.060
 -0.035
 -0.025
 -0.030
 -0.025
 -0.025
 -0.040
 -0.020
 -0.010
 -0.025
 -0.035
 -0.030
 -0.030
 -0.025
 -0.015
 -0.030
 -0.040
 -0.040
 -0.050
 -0.040
 -0.035
 -0.040
 -0.045
 -0.065
 -0.070
 -0.085
 -0.060
 -0.070
 -0.085
 -0.100
 -0.105
 -0.105
 -0.105
 -0.095
 -0.115
 -0.115
 -0.135
 -0.115
 -0.125
 -0.135
 -0.135
 -0.155
 -0.175
 -0.160
 -0.150
 -0.160
 -0.155
 -0.170
 -0.175
 -0.170
 -0.170
 -0.170
 -0.180
 -0.185
 -0.190
 -0.190
 -0.180
 -0.190
 -0.195
 -0.210
 -0.210
 -0.190
 -0.200
 -0.195
 -0.195
 -0.210
 -0.220
 -0.210
 -0.195
 -0.215
 -0.215
 -0.225
 -0.225
 -0.215
 -0.210
 -0.225
 -0.215
 -0.230
 -0.230
 -0.240
 -0.210
 -0.210
 -0.220
 -0.245
 -0.230
 -0.235
 -0.225
 -0.225
 -0.230
 -0.245
 -0.240
 -0.225
 -0.210
 -0.225
 -0.230
 -0.235
 -0.235
 -0.225
 -0.230
 -0.220
 -0.220
 -0.235
 -0.240
 -0.235
 -0.230
 -0.225
 -0.230
 -0.235
 -0.245
 -0.230
 -0.215
 -0.225
 -0.225
 -0.240
 -0.240
 -0.230
 -0.220
 -0.210
 -0.200
 -0.215
 -0.195
 -0.140
 -0.010
  0.285
  0.665
  0.835
  0.675
  0.415
  0.285
  0.220
  0.150
  0.080
  0.010
 -0.060
 -0.135
 -0.255
 -0.400
 -0.555
 -0.720
 -0.910
 -1.100
 -1.280
 -1.425
 -1.575
 -1.710
 -1.855
 -2.005
 -2.200
 -2.415
 -2.590
 -2.710
 -2.810
 -2.895
 -2.980
 -3.075
 -3.160
 -3.210
 -3.235
 -3.235
 -3.260
 -3.275
 -3.290
 -3.290
 -3.300
 -3.280
 -3.270
 -3.265
 -3.260
 -3.240
 -3.185
 -3.100
 -3.000
 -2.875
 -2.720
 -2.525
 -2.305
 -2.050
 -1.790
 -1.530
 -1.285
 -1.035
 -0.800
 -0.585
 -0.375
 -0.165
  0.000
  0.175
  0.355
  0.495
  0.580
  0.650
  0.710
  0.755
  0.805
  0.845
  0.880
  0.915
  0.935
  0.970
  1.005
  1.050
  1.080
  1.100
  1.120
  1.145
  1.180
  1.220
  1.245
  1.270
  1.280
  1.315
  1.360
  1.390
  1.430
  1.460
  1.485
  1.515
  1.550
  1.595
  1.620
  1.660
  1.690
  1.720
  1.765
  1.800
  1.830
  1.860
  1.875
  1.900
  1.935
  1.970
  1.990
  2.010
  2.020
  2.005
  2.015
  2.035
  2.025
  2.020
  1.985
  1.965
  1.950
  1.945
  1.900
  1.865
  1.810
  1.765
  1.715
  1.675
  1.620
  1.560
  1.475
  1.400
  1.345
  1.280
  1.205
  1.130
  1.035
  0.965
  0.910
  0.840
  0.775
  0.720
  0.640
  0.585
  0.540
  0.505
  0.460
  0.410
  0.355
  0.325
  0.295
  0.255
  0.225
  0.215
  0.170
  0.135
  0.130
  0.130
  0.115
  0.090
  0.080
  0.060
  0.055
  0.070
  0.035
  0.040
  0.030
  0.025
  0.020
  0.035
  0.020
  0.010
  0.000
  0.010
  0.015
  0.035
  0.025
  0.020
  0.010
  0.010
  0.025
  0.025
  0.030
  0.035
  0.020
  0.010
  0.025
  0.030
  0.040
  0.035
  0.025
  0.025
  0.020
  0.025
  0.035
  0.015
  0.015
  0.010
  0.015
  0.010
  0.005
  0.000
 -0.010
 -0.020
 -0.020
 -0.010
 -0.020
 -0.020
 -0.035
 -0.045
 -0.035
 -0.035
 -0.040
 -0.050
 -0.070
 -0.070
 -0.080
 -0.080
 -0.085
 -0.090
 -0.110
 -0.110
 -0.110
 -0.095
 -0.110
 -0.110
 -0.125
 -0.125
 -0.115
 -0.120
 -0.120
 -0.125
 -0.135
 -0.135
 -0.140
 -0.130
 -0.135
 -0.140
 -0.180
 -0.160
 -0.145
 -0.150
 -0.150
 -0.160
 -0.175
 -0.170
 -0.165
 -0.160
 -0.170
 -0.160
 -0.185
 -0.190
 -0.185
 -0.170
 -0.165
 -0.185
 -0.190
 -0.185
 -0.180
 -0.170
 -0.185
 -0.180
 -0.190
 -0.190
 -0.185
 -0.170
 -0.180
 -0.195
 -0.195
 -0.200
 -0.185
 -0.185
 -0.180
 -0.195
 -0.200
 -0.195
 -0.180
 -0.185
 -0.180
 -0.185
 -0.200
 -0.210
 -0.190
 -0.185
 -0.190
 -0.205
 -0.205
 -0.205
 -0.200
 -0.190
 -0.185
 -0.200
 -0.210
 -0.215
 -0.190
 -0.180
 -0.190
 -0.180
 -0.205
 -0.200
 -0.185
 -0.175
 -0.180
 -0.175
 -0.160
 -0.145
 -0.065
  0.085
  0.420
  0.790
  0.925
  0.740
  0.485
  0.340
  0.265
  0.195
  0.125
  0.050
 -0.020
 -0.125
 -0.265
 -0.425
 -0.605
 -0.815
 -1.045
 -1.250
 -1.445
 -1.585
 -1.755
 -1.905
 -2.085
 -2.285
 -2.485
 -2.645
 -2.765
 -2.855
 -2.935
 -3.010
 -3.085
 -3.150
 -3.190
 -3.225
 -3.240
 -3.235
 -3.245
 -3.255
 -3.270
 -3.265
 -3.255
 -3.230
 -3.210
 -3.190
 -3.135
 -3.045
 -2.910
 -2.745
 -2.565
 -2.355
 -2.140
 -1.885
 -1.620
 -1.350
 -1.090
 -0.850
 -0.640
 -0.405
 -0.185
  0.010
  0.180
  0.340
  0.480
  0.605
  0.700
  0.770
  0.820
  0.855
  0.875
  0.905
  0.935
  0.965
  1.000
  1.020
  1.040
  1.065
  1.110
  1.140
  1.175
  1.205
  1.235
  1.250
  1.270
  1.320
  1.350
  1.375
  1.385
  1.435
  1.475
  1.505
  1.550
  1.575
  1.605
  1.630
  1.665
  1.710
  1.740
  1.775
  1.795
  1.820
  1.845
  1.890
  1.900
  1.920
  1.925
  1.955
  1.980
  1.985
  1.990
  1.990
  1.970
  1.965
  1.950
  1.945
  1.920
  1.880
  1.830
  1.785
  1.750
  1.695
  1.645
  1.565
  1.490
  1.425
  1.365
  1.305
  1.225
  1.140
  1.065
  0.985
  0.920
  0.860
  0.790
  0.725
  0.655
  0.580
  0.540
  0.500
  0.460
  0.410
  0.360
  0.325
  0.290
  0.285
  0.235
  0.205
  0.180
  0.165
  0.160
  0.150
  0.130
  0.110
  0.085
  0.100
  0.085
  0.090
  0.080
  0.070
  0.060
  0.060
  0.065
  0.070
  0.070
  0.050
  0.035
  0.040
  0.050
  0.060
  0.055
  0.055
  0.050
  0.045
  0.065
  0.060
  0.065
  0.070
  0.040
  0.050
  0.055
  0.055
  0.050
  0.050
  0.045
  0.030
  0.045
  0.060
  0.055
  0.045
  0.035
  0.030
  0.030
  0.030
  0.035
  0.020
  0.000
 -0.005
  0.005
  0.005
  0.000
 -0.010
 -0.030
 -0.025
 -0.020
 -0.025
 -0.030
 -0.035
 -0.065
 -0.055
 -0.050
 -0.050
 -0.055
 -0.070
 -0.090
 -0.095
 -0.090
 -0.080
 -0.085
 -0.100
 -0.115
 -0.110
 -0.105
 -0.090
 -0.100
 -0.105
 -0.120
 -0.120
 -0.125
 -0.110
 -0.130
 -0.125
 -0.140
 -0.140
 -0.125
 -0.130
 -0.125
 -0.135
 -0.140
 -0.150
 -0.135
 -0.130
 -0.140
 -0.140
 -0.155
 -0.150
 -0.145
 -0.150
 -0.145
 -0.145
 -0.165
 -0.165
 -0.155
 -0.140
 -0.145
 -0.150
 -0.165
 -0.170
 -0.155
 -0.145
 -0.155
 -0.165
 -0.170
 -0.165
 -0.160
 -0.150
 -0.150
 -0.160
 -0.165
 -0.165
 -0.160
 -0.150
 -0.155
 -0.165
 -0.175
 -0.180
 -0.165
 -0.160
 -0.170
 -0.165
 -0.185
 -0.180
 -0.175
 -0.160
 -0.170
 -0.170
 -0.170
 -0.165
 -0.160
 -0.140
 -0.140
 -0.115
 -0.065
  0.080
  0.430
  0.835
  0.920
  0.680
  0.420
  0.295
  0.245
  0.215
  0.145
  0.075
 -0.035
 -0.180
 -0.330
 -0.500
 -0.705
 -0.950
 -1.175
 -1.380
 -1.535
 -1.695
 -1.865
 -2.060
 -2.285
 -2.495
 -2.630
 -2.730
 -2.825
 -2.940
 -3.030
 -3.110
 -3.140
 -3.155
 -3.190
 -3.215
 -3.235
 -3.235
 -3.235
 -3.225
 -3.210
 -3.205
 -3.195
 -3.145
 -3.050
 -2.940
 -2.795
 -2.635
 -2.450
 -2.225
 -1.965
 -1.695
 -1.420
 -1.155
 -0.925
 -0.685
 -0.450
 -0.235
 -0.020
  0.155
  0.340
  0.500
  0.630
  0.715
  0.795
  0.835
  0.865
  0.905
  0.965
  1.020
  1.040
  1.065
  1.100
  1.115
  1.150
  1.200
  1.230
  1.250
  1.260
  1.310
  1.340
  1.385
  1.415
  1.455
  1.455
  1.490
  1.535
  1.575
  1.615
  1.650
  1.680
  1.720
  1.765
  1.810
  1.830
  1.870
  1.885
  1.915
  1.955
  1.980
  2.005
  2.020
  2.030
  2.045
  2.065
  2.090
  2.090
  2.090
  2.070
  2.070
  2.065
  2.045
  2.025
  2.000
  1.940
  1.900
  1.850
  1.795
  1.730
  1.660
  1.585
  1.510
  1.440
  1.380
  1.290
  1.200
  1.120
  1.040
  0.980
  0.925
  0.850
  0.780
  0.715
  0.655
  0.615
  0.575
  0.535
  0.485
  0.420
  0.390
  0.360
  0.345
  0.310
  0.275
  0.235
  0.210
  0.195
  0.185
  0.160
  0.140
  0.130
  0.110
  0.110
  0.105
  0.110
  0.085
  0.070
  0.065
  0.075
  0.080
  0.060
  0.065
  0.050
  0.050
  0.055
  0.065
  0.065
  0.055
  0.040
  0.030
  0.055
  0.075
  0.075
  0.075
  0.060
  0.050
  0.060
  0.075
  0.070
  0.070
  0.055
  0.045
  0.060
  0.075
  0.065
  0.060
  0.045
  0.050
  0.055
  0.055
  0.050
  0.035
  0.020
  0.020
  0.025
  0.030
  0.020
  0.010
  0.000
  0.000
  0.005
  0.020
  0.010
 -0.015
 -0.015
 -0.020
 -0.030
 -0.025
 -0.035
 -0.040
 -0.050
 -0.055
 -0.055
 -0.050
 -0.055
 -0.060
 -0.085
 -0.080
 -0.080
 -0.070
 -0.070
 -0.080
 -0.095
 -0.090
 -0.100
 -0.085
 -0.080
 -0.110
 -0.105
 -0.105
 -0.100
 -0.090
 -0.100
 -0.120
 -0.115
 -0.115
 -0.105
 -0.105
 -0.100
 -0.105
 -0.120
 -0.125
 -0.125
 -0.105
 -0.110
 -0.130
 -0.135
 -0.125
 -0.120
 -0.105
 -0.115
 -0.125
 -0.135
 -0.135
 -0.125
 -0.120
 -0.130
 -0.130
 -0.140
 -0.145
 -0.135
 -0.120
 -0.125
 -0.135
 -0.145
 -0.155
 -0.145
 -0.130
 -0.130
 -0.140
 -0.150
 -0.150
 -0.145
 -0.135
 -0.145
 -0.140
 -0.160
 -0.155
 -0.145
 -0.140
 -0.140
 -0.150
 -0.150
 -0.155
 -0.135
 -0.120
 -0.125
 -0.115
 -0.115
 -0.055
  0.090
  0.380
  0.815
  1.005
  0.785
  0.485
  0.320
  0.280
  0.215
  0.120
  0.015
 -0.105
 -0.255
 -0.425
 -0.645
 -0.895
 -1.150
 -1.360
 -1.520
 -1.675
 -1.845
 -2.055
 -2.305
 -2.560
 -2.710
 -2.800
 -2.895
 -3.005
 -3.100
 -3.135
 -3.160
 -3.175
 -3.185
 -3.210
 -3.225
 -3.235
 -3.225
 -3.210
 -3.205
 -3.180
 -3.160
 -3.090
 -2.975
 -2.820
 -2.655
 -2.425
 -2.195
 -1.915
 -1.610
 -1.305
 -1.000
 -0.760
 -0.525
 -0.285
 -0.065
  0.135
  0.305
  0.485
  0.600
  0.685
  0.770
  0.835
  0.880
  0.930
  0.960
  1.000
  1.050
  1.080
  1.125
  1.150
  1.170
  1.205
  1.240
  1.285
  1.300
  1.335
  1.350
  1.375
  1.435
  1.465
  1.505
  1.535
  1.550
  1.595
  1.635
  1.680
  1.730
  1.750
  1.780
  1.805
  1.855
  1.900
  1.925
  1.950
  1.960
  1.990
  2.015
  2.040
  2.060
  2.060
  2.060
  2.065
  2.065
  2.070
  2.050
  2.030
  2.005
  1.985
  1.950
  1.925
  1.890
  1.830
  1.765
  1.720
  1.660
  1.610
  1.545
  1.470
  1.385
  1.325
  1.265
  1.195
  1.125
  1.045
  0.960
  0.900
  0.830
  0.775
  0.715
  0.655
  0.595
  0.545
  0.495
  0.475
  0.425
  0.380
  0.325
  0.285
  0.275
  0.250
  0.225
  0.195
  0.155
  0.140
  0.130
  0.135
  0.110
  0.090
  0.085
  0.060
  0.075
  0.075
  0.065
  0.065
  0.040
  0.045
  0.045
  0.065
  0.065
  0.055
  0.055
  0.045
  0.060
  0.060
  0.050
  0.050
  0.040
  0.035
  0.055
  0.055
  0.055
  0.045
  0.040
  0.045
  0.050
  0.055
  0.055
  0.040
  0.035
  0.030
  0.030
  0.045
  0.050
  0.040
  0.025
  0.030
  0.030
  0.040
  0.035
  0.030
  0.010
  0.005
  0.025
  0.040
  0.045
  0.030
  0.020
  0.020
  0.030
  0.035
  0.035
  0.035
  0.015
  0.010
  0.015
  0.020
  0.015
  0.010
  0.000
 -0.015
 -0.015
 -0.005
 -0.025
 -0.045
 -0.080
 -0.100
 -0.095
 -0.090
 -0.095
 -0.120
 -0.125
 -0.135
 -0.130
 -0.145
 -0.140
 -0.155
 -0.165
 -0.180
 -0.175
 -0.145
 -0.140
 -0.155
 -0.155
 -0.145
 -0.145
 -0.130
 -0.145
 -0.140
 -0.160
 -0.155
 -0.135
 -0.145
 -0.145
 -0.150
 -0.165
 -0.160
 -0.155
 -0.155
 -0.150
 -0.155
 -0.170
 -0.170
 -0.165
 -0.145
 -0.160
 -0.160
 -0.170
 -0.165
 -0.160
 -0.155
 -0.155
 -0.160
 -0.165
 -0.170
 -0.165
 -0.155
 -0.155
 -0.170
 -0.170
 -0.175
 -0.165
 -0.155
 -0.150
 -0.160
 -0.170
 -0.175
 -0.165
 -0.150
 -0.160
 -0.145
 -0.155
 -0.160
 -0.150
 -0.145
 -0.120
 -0.120
 -0.090
  0.000
  0.245
  0.640
  0.855
  0.720
  0.470
  0.295
  0.250
  0.225
  0.180
  0.095
  0.005
 -0.100
 -0.230
 -0.390
 -0.585
 -0.815
 -1.035
 -1.265
 -1.435
 -1.610
 -1.765
 -1.925
 -2.105
 -2.295
 -2.440
 -2.565
 -2.665
 -2.740
 -2.850
 -2.950
 -3.025
 -3.045
 -3.080
 -3.135
 -3.155
 -3.195
 -3.190
 -3.180
 -3.190
 -3.195
 -3.180
 -3.150
 -3.105
 -3.035
 -2.930
 -2.820
 -2.720
 -2.575
 -2.425
 -2.255
 -2.030
 -1.790
 -1.565
 -1.325
 -1.070
 -0.825
 -0.620
 -0.415
 -0.225
 -0.050
  0.125
  0.290
  0.430
  0.575
  0.670
  0.750
  0.835
  0.910
  0.960
  0.990
  1.035
  1.075
  1.130
  1.165
  1.205
  1.245
  1.280
  1.315
  1.355
  1.415
  1.445
  1.480
  1.510
  1.555
  1.605
  1.660
  1.690
  1.730
  1.770
  1.815
  1.855
  1.915
  1.940
  1.965
  2.005
  2.045
  2.085
  2.130
  2.145
  2.170
  2.180
  2.190
  2.215
  2.240
  2.235
  2.235
  2.225
  2.215
  2.220
  2.220
  2.190
  2.155
  2.130
  2.085
  2.065
  2.015
  1.975
  1.925
  1.870
  1.805
  1.745
  1.690
  1.630
  1.555
  1.495
  1.405
  1.360
  1.295
  1.215
  1.145
  1.065
  1.005
  0.965
  0.895
  0.830
  0.780
  0.705
  0.660
  0.610
  0.560
  0.520
  0.465
  0.420
  0.375
  0.345
  0.320
  0.290
  0.260
  0.230
  0.200
  0.190
  0.185
  0.160
  0.140
  0.120
  0.110
  0.105
  0.100
  0.085
  0.065
  0.050
  0.045
  0.045
  0.050
  0.040
  0.040
  0.020
  0.015
  0.015
  0.020
  0.010
  0.010
  0.015
  0.000
  0.010
  0.025
  0.015
  0.005
  0.000
  0.005
  0.005
  0.005
  0.015
  0.010
  0.005
  0.000
  0.015
  0.035
  0.020
  0.030
  0.015
  0.015
  0.035
  0.035
  0.045
  0.030
  0.030
  0.025
  0.035
  0.050
  0.035
  0.025
  0.010
  0.010
  0.025
  0.025
  0.020
  0.020
 -0.005
  0.000
  0.005
  0.020
  0.000
 -0.005
 -0.015
 -0.020
 -0.015
 -0.010
 -0.015
 -0.035
 -0.040
 -0.045
 -0.040
 -0.050
 -0.040
 -0.050
 -0.065
 -0.075
 -0.080
 -0.070
 -0.075
 -0.085
 -0.100
 -0.095
 -0.095
 -0.080
 -0.090
 -0.095
 -0.110
 -0.115
 -0.110
 -0.110
 -0.115
 -0.125
 -0.140
 -0.135
 -0.140
 -0.120
 -0.135
 -0.140
 -0.135
 -0.145
 -0.140
 -0.130
 -0.130
 -0.135
 -0.140
 -0.155
 -0.140
 -0.145
 -0.135
 -0.150
 -0.155
 -0.155
 -0.150
 -0.125
 -0.115
 -0.120
 -0.120
 -0.105
 -0.100
 -0.090
 -0.100
 -0.100
 -0.105
 -0.120
 -0.115
 -0.100
 -0.105
 -0.115
 -0.115
 -0.130
 -0.125
 -0.110
 -0.130
 -0.155
 -0.165
 -0.180
 -0.170
 -0.175
 -0.180
 -0.190
 -0.195
 -0.200
 -0.185
 -0.175
 -0.155
 -0.105
  0.050
  0.405
  0.805
  0.910
  0.685
  0.430
  0.305
  0.255
  0.220
  0.165
  0.105
  0.020
 -0.085
 -0.215
 -0.355
 -0.510
 -0.720
 -0.940
 -1.145
 -1.320
 -1.450
 -1.580
 -1.725
 -1.915
 -2.120
 -2.305
 -2.440
 -2.540
 -2.640
 -2.715
 -2.825
 -2.905
 -2.955
 -2.995
 -3.045
 -3.095
 -3.145
 -3.145
 -3.160
 -3.170
 -3.180
 -3.185
 -3.195
 -3.155
 -3.105
 -3.015
 -2.900
 -2.765
 -2.630
 -2.455
 -2.250
 -2.015
 -1.785
 -1.555
 -1.315
 -1.055
 -0.820
 -0.610
 -0.410
 -0.220
 -0.050
  0.120
  0.280
  0.425
  0.530
  0.630
  0.675
  0.730
  0.780
  0.840
  0.885
  0.925
  0.955
  0.985
  1.035
  1.080
  1.115
  1.140
  1.170
  1.200
  1.255
  1.290
  1.325
  1.365
  1.400
  1.430
  1.485
  1.530
  1.575
  1.595
  1.625
  1.665
  1.710
  1.745
  1.790
  1.815
  1.840
  1.870
  1.910
  1.950
  1.975
  1.980
  1.990
  2.000
  2.020
  2.045
  2.035
  2.020
  2.020
  1.995
  2.000
  1.995
  1.955
  1.915
  1.875
  1.825
  1.795
  1.745
  1.685
  1.635
  1.575
  1.505
  1.460
  1.410
  1.330
  1.255
  1.185
  1.115
  1.065
  1.025
  0.950
  0.885
  0.830
  0.770
  0.705
  0.670
  0.620
  0.560
  0.525
  0.455
  0.425
  0.405
  0.360
  0.305
  0.280
  0.250
  0.240
  0.210
  0.185
  0.160
  0.125
  0.120
  0.115
  0.100
  0.090
  0.060
  0.040
  0.030
  0.025
  0.025
  0.015
  0.015
 -0.005
 -0.015
 -0.010
 -0.010
 -0.010
 -0.025
 -0.030
 -0.025
 -0.015
 -0.020
 -0.025
 -0.030
 -0.040
 -0.030
 -0.025
 -0.010
 -0.020
 -0.030
 -0.045
 -0.025
 -0.015
 -0.005
 -0.010
 -0.010
 -0.010
 -0.005
  0.010
  0.010
  0.000
 -0.015
 -0.010
  0.000
 -0.005
  0.020
  0.010
  0.005
 -0.005
  0.000
  0.010
  0.020
  0.015
  0.010
 -0.005
 -0.020
 -0.005
  0.005
 -0.005
 -0.015
 -0.015
 -0.020
 -0.020
 -0.010
 -0.035
 -0.030
 -0.030
 -0.040
 -0.040
 -0.040
 -0.050
 -0.055
 -0.065
 -0.080
 -0.070
 -0.070
 -0.070
 -0.090
 -0.105
 -0.100
 -0.100
 -0.095
 -0.090
 -0.120
 -0.125
 -0.125
 -0.120
 -0.110
 -0.120
 -0.125
 -0.140
 -0.140
 -0.135
 -0.140
 -0.130
 -0.155
 -0.160
 -0.150
 -0.140
 -0.135
 -0.150
 -0.155
 -0.160
 -0.160
 -0.160
 -0.155
 -0.150
 -0.165
 -0.170
 -0.170
 -0.160
 -0.160
 -0.170
 -0.185
 -0.185
 -0.180
 -0.175
 -0.170
 -0.180
 -0.180
 -0.185
 -0.190
 -0.175
 -0.165
 -0.180
 -0.185
 -0.200
 -0.195
 -0.190
 -0.175
 -0.185
 -0.190
 -0.190
 -0.200
 -0.190
 -0.170
 -0.175
 -0.190
 -0.180
 -0.180
 -0.175
 -0.160
 -0.150
 -0.145
 -0.150
 -0.150
 -0.120
 -0.095
 -0.090
 -0.095
 -0.060
  0.020
  0.275
  0.660
  0.895
  0.800
  0.540
  0.380
  0.320
  0.280
  0.220
  0.135
  0.040
 -0.080
 -0.235
 -0.390
 -0.595
 -0.845
 -1.090
 -1.295
 -1.460
 -1.600
 -1.740
 -1.890
 -2.055
 -2.225
 -2.405
 -2.565
 -2.695
 -2.790
 -2.885
 -2.985
 -3.080
 -3.115
 -3.145
 -3.180
 -3.210
 -3.230
 -3.235
 -3.230
 -3.230
 -3.240
 -3.235
 -3.215
 -3.165
 -3.110
 -3.035
 -2.925
 -2.810
 -2.675
 -2.525
 -2.330
 -2.125
 -1.910
 -1.675
 -1.440
 -1.185
 -0.960
 -0.770
 -0.570
 -0.395
 -0.210
 -0.040
  0.135
  0.280
  0.415
  0.505
  0.590
  0.680
  0.730
  0.785
  0.810
  0.845
  0.890
  0.930
  0.990
  1.030
  1.045
  1.085
  1.105
  1.155
  1.205
  1.240
  1.265
  1.285
  1.320
  1.380
  1.410
  1.455
  1.485
  1.510
  1.550
  1.590
  1.645
  1.665
  1.675
  1.715
  1.740
  1.790
  1.820
  1.855
  1.880
  1.890
  1.915
  1.945
  1.980
  1.995
  1.990
  2.000
  1.995
  2.015
  2.020
  2.010
  1.980
  1.965
  1.945
  1.935
  1.920
  1.870
  1.815
  1.765
  1.725
  1.690
  1.640
  1.585
  1.515
  1.450
  1.390
  1.335
  1.290
  1.205
  1.140
  1.075
  0.990
  0.955
  0.910
  0.845
  0.780
  0.715
  0.660
  0.615
  0.585
  0.520
  0.480
  0.420
  0.370
  0.345
  0.330
  0.285
  0.245
  0.215
  0.190
  0.185
  0.165
  0.130
  0.105
  0.090
  0.055
  0.050
  0.055
  0.040
  0.020
 -0.005
 -0.015
 -0.005
  0.000
 -0.010
 -0.015
 -0.020
 -0.035
 -0.025
 -0.005
 -0.015
 -0.020
 -0.035
 -0.020
 -0.010
 -0.010
 -0.005
 -0.015
 -0.020
 -0.020
  0.000
  0.010
  0.000
  0.015
 -0.005
  0.000
  0.015
  0.030
  0.025
  0.015
 -0.005
 -0.010
  0.010
  0.025
  0.015
  0.005
  0.000
 -0.020
 -0.005
  0.015
 -0.005
 -0.005
 -0.020
 -0.020
 -0.015
 -0.010
 -0.005
 -0.030
 -0.045
 -0.045
 -0.030
 -0.030
 -0.050
 -0.060
 -0.075
 -0.095
 -0.070
 -0.070
 -0.070
 -0.090
 -0.090
 -0.105
 -0.100
 -0.100
 -0.105
 -0.120
 -0.120
 -0.130
 -0.115
 -0.115
 -0.125
 -0.135
 -0.140
 -0.155
 -0.150
 -0.145
 -0.155
 -0.155
 -0.155
 -0.165
 -0.160
 -0.150
 -0.170
 -0.170
 -0.185
 -0.190
 -0.170
 -0.180
 -0.185
 -0.175
 -0.195
 -0.195
 -0.200
 -0.185
 -0.180
 -0.190
 -0.210
 -0.200
 -0.190
 -0.185
 -0.195
 -0.205
 -0.215
 -0.205
 -0.200
 -0.190
 -0.205
 -0.210
 -0.205
 -0.220
 -0.215
 -0.190
 -0.200
 -0.205
 -0.210
 -0.220
 -0.205
 -0.205
 -0.210
 -0.205
 -0.220
 -0.225
 -0.220
 -0.205
 -0.215
 -0.220
 -0.230
 -0.225
 -0.220
 -0.195
 -0.220
 -0.220
 -0.220
 -0.220
 -0.205
 -0.210
 -0.205
 -0.200
 -0.205
 -0.195
 -0.145
 -0.075
  0.105
  0.470
  0.765
  0.730
  0.500
  0.340
  0.265
  0.210
  0.165
  0.095
  0.035
 -0.055
 -0.200
 -0.355
 -0.510
 -0.690
 -0.900
 -1.105
 -1.315
 -1.470
 -1.630
 -1.785
 -1.940
 -2.125
 -2.365
 -2.565
 -2.720
 -2.825
 -2.910
 -2.990
 -3.085
 -3.150
 -3.180
 -3.210
 -3.210
 -3.215
 -3.245
 -3.250
 -3.265
 -3.255
 -3.245
 -3.225
 -3.220
 -3.205
 -3.170
 -3.090
 -3.000
 -2.870
 -2.730
 -2.585
 -2.400
 -2.195
 -1.980
 -1.750
 -1.510
 -1.300
 -1.095
 -0.890
 -0.690
 -0.510
 -0.320
 -0.145
  0.015
  0.165
  0.330
  0.460
  0.545
  0.625
  0.675
  0.720
  0.770
  0.815
  0.850
  0.885
  0.905
  0.940
  0.975
  1.025
  1.055
  1.060
  1.085
  1.120
  1.160
  1.195
  1.215
  1.240
  1.270
  1.295
  1.335
  1.380
  1.410
  1.445
  1.470
  1.505
  1.540
  1.585
  1.615
  1.640
  1.665
  1.705
  1.740
  1.785
  1.810
  1.830
  1.850
  1.870
  1.900
  1.930
  1.940
  1.955
  1.960
  1.975
  1.990
  2.005
  1.995
  1.990
  1.975
  1.960
  1.970
  1.960
  1.935
  1.905
  1.880
  1.845
  1.815
  1.785
  1.725
  1.685
  1.630
  1.575
  1.535
  1.490
  1.425
  1.355
  1.295
  1.230
  1.165
  1.130
  1.050
  0.975
  0.915
  0.850
  0.800
  0.755
  0.695
  0.625
  0.580
  0.530
  0.480
  0.450
  0.410
  0.360
  0.320
  0.280
  0.265
  0.240
  0.205
  0.175
  0.145
  0.125
  0.120
  0.115
  0.085
  0.065
  0.045
  0.035
  0.030
  0.035
  0.025
  0.020
 -0.005
 -0.015
 -0.010
 -0.005
 -0.010
 -0.005
 -0.030
 -0.025
 -0.010
  0.000
 -0.015
 -0.020
 -0.035
 -0.020
 -0.010
 -0.010
 -0.010
 -0.005
 -0.010
 -0.015
  0.000
  0.010
  0.000
 -0.005
 -0.015
 -0.010
  0.000
  0.010
  0.005
 -0.005
 -0.015
 -0.015
  0.000
  0.010
  0.000
 -0.010
 -0.015
 -0.015
 -0.020
  0.000
 -0.010
 -0.025
 -0.030
 -0.045
 -0.035
 -0.025
 -0.040
 -0.035
 -0.060
 -0.065
 -0.065
 -0.055
 -0.070
 -0.085
 -0.085
 -0.085
 -0.085
 -0.070
 -0.085
 -0.100
 -0.110
 -0.110
 -0.105
 -0.105
 -0.120
 -0.120
 -0.135
 -0.140
 -0.125
 -0.130
 -0.125
 -0.145
 -0.155
 -0.150
 -0.160
 -0.140
 -0.150
 -0.150
 -0.170
 -0.170
 -0.160
 -0.160
 -0.160
 -0.170
 -0.180
 -0.185
 -0.180
 -0.170
 -0.165
 -0.180
 -0.185
 -0.195
 -0.180
 -0.160
 -0.180
 -0.185
 -0.185
 -0.185
 -0.190
 -0.175
 -0.190
 -0.190
 -0.200
 -0.195
 -0.185
 -0.175
 -0.180
 -0.190
 -0.195
 -0.200
 -0.190
 -0.185
 -0.185
 -0.195
 -0.205
 -0.190
 -0.180
 -0.175
 -0.180
 -0.190
 -0.205
 -0.215
 -0.195
 -0.185
 -0.190
 -0.205
 -0.215
 -0.210
 -0.205
 -0.190
 -0.205
 -0.210
 -0.205
 -0.210
 -0.195
 -0.200
 -0.195
 -0.205
 -0.210
 -0.210
 -0.185
 -0.175
 -0.180
 -0.160
 -0.145
 -0.075
  0.135
  0.520
  0.870
  0.860
  0.580
  0.350
  0.255
  0.215
  0.135
  0.065
 -0.030
 -0.150
 -0.275
 -0.410
 -0.600
 -0.815
 -1.050
 -1.260
 -1.415
 -1.560
 -1.705
 -1.840
 -2.010
 -2.215
 -2.395
 -2.540
 -2.665
 -2.755
 -2.860
 -2.935
 -3.020
 -3.075
 -3.125
 -3.150
 -3.190
 -3.205
 -3.210
 -3.210
 -3.215
 -3.225
 -3.220
 -3.215
 -3.200
 -3.165
 -3.130
 -3.075
 -2.980
 -2.845
 -2.685
 -2.500
 -2.285
 -2.050
 -1.815
 -1.545
 -1.275
 -1.030
 -0.815
 -0.615
 -0.430
 -0.235
 -0.060
  0.115
  0.295
  0.415
  0.510
  0.595
  0.670
  0.730
  0.770
  0.795
  0.820
  0.870
  0.905
  0.950
  0.980
  1.000
  1.015
  1.055
  1.085
  1.130
  1.160
  1.170
  1.200
  1.225
  1.270
  1.300
  1.335
  1.355
  1.395
  1.415
  1.455
  1.500
  1.525
  1.550
  1.575
  1.625
  1.660
  1.695
  1.720
  1.755
  1.760
  1.790
  1.840
  1.860
  1.880
  1.885
  1.895
  1.915
  1.930
  1.955
  1.955
  1.945
  1.945
  1.930
  1.925
  1.920
  1.900
  1.875
  1.820
  1.800
  1.790
  1.740
  1.695
  1.635
  1.565
  1.515
  1.450
  1.395
  1.320
  1.250
  1.150
  1.095
  1.020
  0.960
  0.885
  0.815
  0.745
  0.695
  0.645
  0.610
  0.540
  0.480
  0.430
  0.385
  0.360
  0.330
  0.295
  0.255
  0.210
  0.195
  0.170
  0.165
  0.140
  0.125
  0.100
  0.095
  0.075
  0.085
  0.070
  0.045
  0.040
  0.040
  0.040
  0.050
  0.045
  0.040
  0.020
  0.030
  0.035
  0.050
  0.035
  0.030
  0.025
  0.025
  0.030
  0.050
  0.040
  0.035
  0.025
  0.030
  0.040
  0.040
  0.040
  0.030
  0.015
  0.015
  0.025
  0.030
  0.035
  0.020
  0.015
  0.005
  0.010
  0.025
  0.020
  0.000
 -0.010
 -0.015
 -0.010
  0.000
 -0.005
 -0.025
 -0.035
 -0.035
 -0.030
 -0.020
 -0.055
 -0.060
 -0.065
 -0.055
 -0.065
 -0.060
 -0.060
 -0.080
 -0.085
 -0.095
 -0.085
 -0.090
 -0.095
 -0.110
 -0.120
 -0.110
 -0.105
 -0.110
 -0.120
 -0.125
 -0.140
 -0.135
 -0.120
 -0.120
 -0.125
 -0.145
 -0.155
 -0.145
 -0.145
 -0.140
 -0.140
 -0.155
 -0.155
 -0.150
 -0.150
 -0.145
 -0.150
 -0.160
 -0.165
 -0.165
 -0.160
 -0.160
 -0.160
 -0.175
 -0.190
 -0.185
 -0.160
 -0.165
 -0.170
 -0.175
 -0.175
 -0.185
 -0.170
 -0.175
 -0.170
 -0.175
 -0.190
 -0.180
 -0.175
 -0.170
 -0.170
 -0.180
 -0.195
 -0.195
 -0.175
 -0.175
 -0.170
 -0.175
 -0.185
 -0.190
 -0.180
 -0.160
 -0.165
 -0.190
 -0.180
 -0.190
 -0.180
 -0.180
 -0.175
 -0.175
 -0.185
 -0.175
 -0.175
 -0.170
 -0.170
 -0.175
 -0.170
 -0.165
 -0.135
 -0.095
  0.000
  0.230
  0.640
  0.930
  0.845
  0.535
  0.335
  0.255
  0.225
  0.165
  0.110
  0.025
 -0.075
 -0.220
 -0.410
 -0.610
 -0.825
 -1.040
 -1.255
 -1.430
 -1.590
 -1.730
 -1.895
 -2.070
 -2.285
 -2.460
 -2.585
 -2.690
 -2.750
 -2.840
 -2.940
 -3.010
 -3.050
 -3.085
 -3.115
 -3.130
 -3.145
 -3.155
 -3.170
 -3.175
 -3.165
 -3.145
 -3.135
 -3.120
 -3.080
 -3.000
 -2.885
 -2.750
 -2.580
 -2.410
 -2.185
 -1.920
 -1.665
 -1.400
 -1.145
 -0.910
 -0.695
 -0.475
 -0.275
 -0.090
  0.080
  0.245
  0.380
  0.505
  0.595
  0.675
  0.730
  0.770
  0.795
  0.825
  0.885
  0.920
  0.955
  0.970
  0.985
  1.020
  1.060
  1.085
  1.125
  1.145
  1.170
  1.205
  1.240
  1.280
  1.315
  1.330
  1.355
  1.400
  1.450
  1.490
  1.515
  1.550
  1.570
  1.605
  1.665
  1.710
  1.740
  1.765
  1.795
  1.820
  1.860
  1.890
  1.920
  1.930
  1.925
  1.955
  1.970
  1.980
  1.980
  1.975
  1.950
  1.950
  1.945
  1.925
  1.880
  1.845
  1.785
  1.755
  1.710
  1.655
  1.590
  1.515
  1.445
  1.370
  1.305
  1.250
  1.160
  1.070
  1.010
  0.925
  0.865
  0.815
  0.745
  0.685
  0.615
  0.560
  0.520
  0.480
  0.425
  0.385
  0.325
  0.295
  0.285
  0.260
  0.235
  0.210
  0.165
  0.145
  0.145
  0.135
  0.130
  0.110
  0.100
  0.080
  0.095
  0.095
  0.085
  0.080
  0.065
  0.075
  0.075
  0.075
  0.065
  0.070
  0.060
  0.075
  0.080
  0.085
  0.075
  0.070
  0.060
  0.065
  0.085
  0.090
  0.090
  0.085
  0.080
  0.080
  0.075
  0.075
  0.075
  0.080
  0.055
  0.060
  0.060
  0.065
  0.055
  0.045
  0.030
  0.040
  0.030
  0.035
  0.025
  0.015
  0.005
 -0.010
  0.000
  0.005
  0.005
 -0.025
 -0.030
 -0.035
 -0.030
 -0.035
 -0.040
 -0.050
 -0.065
 -0.070
 -0.060
 -0.065
 -0.070
 -0.080
 -0.095
 -0.085
 -0.075
 -0.085
 -0.085
 -0.110
 -0.115
 -0.110
 -0.100
 -0.105
 -0.105
 -0.115
 -0.115
 -0.130
 -0.110
 -0.110
 -0.120
 -0.125
 -0.140
 -0.140
 -0.125
 -0.115
 -0.130
 -0.140
 -0.145
 -0.145
 -0.135
 -0.130
 -0.125
 -0.140
 -0.155
 -0.155
 -0.145
 -0.145
 -0.135
 -0.155
 -0.165
 -0.160
 -0.145
 -0.140
 -0.155
 -0.150
 -0.160
 -0.155
 -0.150
 -0.150
 -0.140
 -0.160
 -0.165
 -0.155
 -0.150
 -0.135
 -0.145
 -0.155
 -0.170
 -0.160
 -0.160
 -0.140
 -0.150
 -0.160
 -0.175
 -0.165
 -0.155
 -0.150
 -0.150
 -0.145
 -0.155
 -0.145
 -0.135
 -0.125
 -0.125
 -0.105
 -0.055
  0.130
  0.515
  0.875
  0.860
  0.580
  0.350
  0.255
  0.215
  0.165
  0.090
 -0.020
 -0.165
 -0.310
 -0.500
 -0.685
 -0.925
 -1.155
 -1.345
 -1.500
 -1.650
 -1.795
 -1.995
 -2.225
 -2.435
 -2.600
 -2.690
 -2.780
 -2.875
 -2.975
 -3.045
 -3.090
 -3.085
 -3.100
 -3.145
 -3.155
 -3.160
 -3.170
 -3.160
 -3.125
 -3.125
 -3.105
 -3.060
 -2.975
 -2.850
 -2.710
 -2.555
 -2.370
 -2.150
 -1.880
 -1.585
 -1.300
 -1.005
 -0.760
 -0.535
 -0.295
 -0.075
  0.105
  0.290
  0.450
  0.580
  0.680
  0.770
  0.825
  0.860
  0.880
  0.900
  0.920
  0.965
  0.985
  1.015
  1.040
  1.035
  1.065
  1.105
  1.130
  1.155
  1.165
  1.200
  1.240
  1.295
  1.340
  1.375
  1.400
  1.420
  1.470
  1.510
  1.555
  1.575
  1.610
  1.640
  1.675
  1.730
  1.760
  1.790
  1.815
  1.850
  1.865
  1.900
  1.930
  1.945
  1.950
  1.955
  1.970
  1.990
  1.985
  1.990
  1.975
  1.950
  1.940
  1.930
  1.905
  1.865
  1.825
  1.780
  1.745
  1.710
  1.645
  1.600
  1.520
  1.460
  1.395
  1.340
  1.280
  1.210
  1.135
  1.060
  0.995
  0.935
  0.890
  0.815
  0.740
  0.665
  0.635
  0.585
  0.540
  0.495
  0.440
  0.395
  0.360
  0.325
  0.300
  0.260
  0.220
  0.190
  0.165
  0.165
  0.145
  0.130
  0.090
  0.085
  0.075
  0.080
  0.085
  0.075
  0.045
  0.035
  0.035
  0.040
  0.045
  0.045
  0.030
  0.030
  0.035
  0.035
  0.045
  0.045
  0.040
  0.030
  0.035
  0.035
  0.050
  0.045
  0.035
  0.020
  0.030
  0.040
  0.035
  0.045
  0.025
  0.015
  0.030
  0.035
  0.050
  0.025
  0.025
  0.005
  0.010
  0.025
  0.025
  0.020
  0.000
 -0.005
  0.000
  0.005
  0.005
  0.005
 -0.020
 -0.035
 -0.035
 -0.025
 -0.030
 -0.040
 -0.055
 -0.060
 -0.065
 -0.060
 -0.060
 -0.065
 -0.085
 -0.080
 -0.085
 -0.090
 -0.085
 -0.085
 -0.100
 -0.110
 -0.125
 -0.100
 -0.110
 -0.110
 -0.130
 -0.140
 -0.140
 -0.130
 -0.135
 -0.135
 -0.145
 -0.135
 -0.155
 -0.145
 -0.140
 -0.150
 -0.145
 -0.155
 -0.165
 -0.155
 -0.145
 -0.150
 -0.160
 -0.180
 -0.180
 -0.165
 -0.165
 -0.170
 -0.175
 -0.180
 -0.185
 -0.175
 -0.165
 -0.175
 -0.180
 -0.190
 -0.180
 -0.170
 -0.165
 -0.165
 -0.175
 -0.190
 -0.190
 -0.180
 -0.165
 -0.170
 -0.185
 -0.185
 -0.185
 -0.190
 -0.165
 -0.190
 -0.195
 -0.185
 -0.195
 -0.180
 -0.185
 -0.185
 -0.205
 -0.200
 -0.185
 -0.185
 -0.180
 -0.180
 -0.190
 -0.190
 -0.180
 -0.170
 -0.150
 -0.130
 -0.090
  0.035
  0.405
  0.780
  0.785
  0.510
  0.265
  0.180
  0.135
  0.080
  0.000
 -0.120
 -0.265
 -0.445
 -0.605
 -0.815
 -1.035
 -1.255
 -1.425
 -1.580
 -1.725
 -1.885
 -2.080
 -2.305
 -2.510
 -2.635
 -2.730
 -2.820
 -2.910
 -3.000
 -3.055
 -3.100
 -3.115
 -3.125
 -3.150
 -3.155
 -3.150
 -3.175
 -3.155
 -3.125
 -3.085
 -3.040
 -2.960
 -2.845
 -2.705
 -2.525
 -2.325
 -2.090
 -1.855
 -1.595
 -1.310
 -1.030
 -0.800
 -0.590
 -0.375
 -0.180
  0.020
  0.220
  0.380
  0.505
  0.595
  0.655
  0.720
  0.780
  0.825
  0.860
  0.890
  0.920
  0.950
  0.995
  1.035
  1.060
  1.080
  1.115
  1.150
  1.190
  1.235
  1.270
  1.280
  1.315
  1.355
  1.400
  1.430
  1.475
  1.495
  1.525
  1.550
  1.575
  1.615
  1.635
  1.660
  1.670
  1.705
  1.730
  1.750
  1.765
  1.775
  1.780
  1.805
  1.835
  1.860
  1.860
  1.870
  1.870
  1.880
  1.890
  1.895
  1.880
  1.840
  1.810
  1.795
  1.775
  1.740
  1.700
  1.655
  1.585
  1.535
  1.500
  1.445
  1.365
  1.300
  1.235
  1.160
  1.120
  1.055
  0.985
  0.900
  0.835
  0.780
  0.725
  0.675
  0.625
  0.550
  0.495
  0.450
  0.415
  0.385
  0.340
  0.300
  0.245
  0.220
  0.200
  0.165
  0.150
  0.125
  0.095
  0.075
  0.065
  0.065
  0.045
  0.020
  0.010
  0.000
  0.010
  0.010
  0.000
 -0.010
 -0.020
 -0.025
 -0.010
 -0.005
 -0.015
 -0.015
 -0.035
 -0.030
 -0.010
 -0.005
 -0.015
 -0.025
 -0.035
 -0.030
 -0.010
 -0.005
 -0.010
 -0.020
 -0.030
 -0.005
 -0.010
 -0.010
 -0.015
 -0.015
 -0.035
 -0.010
 -0.005
 -0.010
 -0.020
 -0.025
 -0.025
 -0.035
 -0.015
 -0.025
 -0.020
 -0.035
 -0.055
 -0.050
 -0.040
 -0.045
 -0.035
 -0.065
 -0.075
 -0.075
 -0.075
 -0.065
 -0.070
 -0.075
 -0.095
 -0.095
 -0.090
 -0.085
 -0.100
 -0.120
 -0.125
 -0.130
 -0.125
 -0.115
 -0.125
 -0.140
 -0.160
 -0.150
 -0.145
 -0.140
 -0.145
 -0.160
 -0.175
 -0.160
 -0.155
 -0.165
 -0.160
 -0.180
 -0.190
 -0.185
 -0.175
 -0.170
 -0.175
 -0.180
 -0.190
 -0.180
 -0.175
 -0.175
 -0.185
 -0.190
 -0.200
 -0.195
 -0.175
 -0.190
 -0.190
 -0.190
 -0.220
 -0.215
 -0.200
 -0.210
 -0.195
 -0.205
 -0.225
 -0.210
 -0.200
 -0.195
 -0.210
 -0.205
 -0.215
 -0.220
 -0.205
 -0.200
 -0.205
 -0.220
 -0.225
 -0.215
 -0.215
 -0.215
 -0.215
 -0.220
 -0.230
 -0.210
 -0.200
 -0.210
 -0.205
 -0.225
 -0.230
 -0.230
 -0.215
 -0.210
 -0.220
 -0.220
 -0.215
 -0.225
 -0.205
 -0.200
 -0.195
 -0.200
 -0.175
 -0.145
 -0.025
  0.235
  0.605
  0.715
  0.500
  0.280
  0.195
  0.150
  0.105
  0.035
 -0.055
 -0.150
 -0.250
 -0.390
 -0.575
 -0.775
 -0.990
 -1.170
 -1.335
 -1.475
 -1.620
 -1.790
 -1.970
 -2.180
 -2.365
 -2.495
 -2.610
 -2.700
 -2.810
 -2.900
 -2.965
 -3.025
 -3.050
 -3.095
 -3.115
 -3.120
 -3.125
 -3.125
 -3.135
 -3.135
 -3.145
 -3.115
 -3.090
 -3.035
 -2.980
 -2.895
 -2.780
 -2.650
 -2.485
 -2.295
 -2.095
 -1.875
 -1.650
 -1.390
 -1.140
 -0.910
 -0.710
 -0.500
 -0.320
 -0.140
  0.025
  0.165
  0.320
  0.435
  0.515
  0.585
  0.655
  0.700
  0.735
  0.780
  0.795
  0.835
  0.870
  0.895
  0.920
  0.945
  0.965
  1.010
  1.025
  1.065
  1.090
  1.105
  1.125
  1.155
  1.185
  1.220
  1.250
  1.275
  1.295
  1.335
  1.370
  1.390
  1.430
  1.445
  1.475
  1.510
  1.550
  1.585
  1.625
  1.645
  1.660
  1.690
  1.740
  1.760
  1.780
  1.795
  1.805
  1.825
  1.850
  1.865
  1.875
  1.860
  1.865
  1.870
  1.875
  1.865
  1.860
  1.840
  1.805
  1.800
  1.765
  1.745
  1.700
  1.665
  1.605
  1.565
  1.520
  1.490
  1.410
  1.355
  1.290
  1.230
  1.190
  1.130
  1.045
  0.970
  0.900
  0.840
  0.775
  0.725
  0.650
  0.580
  0.515
  0.470
  0.430
  0.395
  0.350
  0.300
  0.245
  0.215
  0.190
  0.155
  0.145
  0.115
  0.090
  0.075
  0.070
  0.060
  0.045
  0.030
  0.005
 -0.010
 -0.015
 -0.015
 -0.020
 -0.040
 -0.045
 -0.055
 -0.040
 -0.050
 -0.040
 -0.055
 -0.055
 -0.060
 -0.050
 -0.045
 -0.035
 -0.060
 -0.060
 -0.075
 -0.040
 -0.055
 -0.050
 -0.065
 -0.065
 -0.055
 -0.050
 -0.040
 -0.050
 -0.050
 -0.060
 -0.050
 -0.035
 -0.035
 -0.040
 -0.045
 -0.065
 -0.055
 -0.055
 -0.050
 -0.055
 -0.060
 -0.080
 -0.065
 -0.065
 -0.065
 -0.075
 -0.075
 -0.075
 -0.095
 -0.090
 -0.090
 -0.090
 -0.110
 -0.125
 -0.115
 -0.110
 -0.115
 -0.115
 -0.130
 -0.140
 -0.135
 -0.135
 -0.130
 -0.130
 -0.150
 -0.160
 -0.170
 -0.155
 -0.170
 -0.170
 -0.175
 -0.175
 -0.175
 -0.170
 -0.165
 -0.175
 -0.190
 -0.195
 -0.200
 -0.185
 -0.175
 -0.185
 -0.195
 -0.205
 -0.200
 -0.185
 -0.190
 -0.195
 -0.215
 -0.215
 -0.215
 -0.195
 -0.210
 -0.200
 -0.210
 -0.220
 -0.225
 -0.215
 -0.200
 -0.205
 -0.215
 -0.230
 -0.215
 -0.200
 -0.210
 -0.205
 -0.230
 -0.225
 -0.215
 -0.205
 -0.205
 -0.210
 -0.220
 -0.230
 -0.225
 -0.205
 -0.205
 -0.210
 -0.225
 -0.235
 -0.220
 -0.215
 -0.210
 -0.225
 -0.230
 -0.235
 -0.225
 -0.210
 -0.210
 -0.220
 -0.225
 -0.225
 -0.225
 -0.215
 -0.205
 -0.210
 -0.220
 -0.240
 -0.225
 -0.210
 -0.205
 -0.210
 -0.200
 -0.205
 -0.175
 -0.125
  0.005
  0.280
  0.640
  0.875
  0.730
  0.450
  0.285
  0.215
  0.160
  0.085
  0.030
 -0.035
 -0.155
 -0.300
 -0.460
 -0.635
 -0.835
 -1.030
 -1.230
 -1.400
 -1.545
 -1.695
 -1.825
 -1.955
 -2.120
 -2.310
 -2.480
 -2.610
 -2.685
 -2.750
 -2.805
 -2.895
 -2.980
 -3.025
 -3.045
 -3.060
 -3.080
 -3.095
 -3.110
 -3.130
 -3.125
 -3.120
 -3.110
 -3.100
 -3.090
 -3.085
 -3.045
 -2.955
 -2.875
 -2.755
 -2.640
 -2.485
 -2.290
 -2.050
 -1.810
 -1.560
 -1.310
 -1.075
 -0.830
 -0.615
 -0.405
 -0.235
 -0.075
  0.090
  0.270
  0.430
  0.545
  0.630
  0.690
  0.730
  0.775
  0.825
  0.870
  0.910
  0.920
  0.950
  0.980
  1.030
  1.060
  1.085
  1.105
  1.120
  1.150
  1.205
  1.230
  1.255
  1.270
  1.295
  1.335
  1.370
  1.395
  1.430
  1.455
  1.475
  1.520
  1.560
  1.600
  1.630
  1.645
  1.680
  1.725
  1.755
  1.790
  1.815
  1.830
  1.845
  1.865
  1.915
  1.930
  1.945
  1.950
  1.955
  1.965
  1.985
  1.990
  1.980
  1.965
  1.950
  1.945
  1.920
  1.900
  1.880
  1.830
  1.780
  1.745
  1.700
  1.665
  1.610
  1.530
  1.475
  1.420
  1.375
  1.320
  1.260
  1.175
  1.110
  1.065
  1.015
  0.945
  0.880
  0.820
  0.760
  0.710
  0.660
  0.630
  0.560
  0.495
  0.455
  0.410
  0.385
  0.345
  0.305
  0.265
  0.240
  0.215
  0.200
  0.165
  0.145
  0.115
  0.100
  0.085
  0.075
  0.065
  0.050
  0.040
  0.025
  0.020
  0.025
  0.025
  0.020
  0.005
 -0.005
 -0.005
  0.005
  0.015
  0.010
  0.005
 -0.010
 -0.005
  0.010
  0.020
  0.015
 -0.005
  0.000
  0.015
  0.035
  0.065
  0.050
  0.045
  0.050
  0.070
  0.065
  0.065
  0.060
  0.050
  0.050
  0.055
  0.070
  0.065
  0.070
  0.055
  0.040
  0.045
  0.055
  0.045
  0.035
  0.005
 -0.020
 -0.020
 -0.030
 -0.030
 -0.040
 -0.060
 -0.070
 -0.075
 -0.075
 -0.085
 -0.085
 -0.090
 -0.110
 -0.100
 -0.080
 -0.080
 -0.080
 -0.110
 -0.120
 -0.120
 -0.110
 -0.105
 -0.110
 -0.120
 -0.135
 -0.130
 -0.115
 -0.120
 -0.125
 -0.140
 -0.155
 -0.150
 -0.145
 -0.140
 -0.150
 -0.160
 -0.155
 -0.160
 -0.145
 -0.155
 -0.150
 -0.160
 -0.175
 -0.165
 -0.165
 -0.155
 -0.165
 -0.190
 -0.190
 -0.180
 -0.165
 -0.165
 -0.170
 -0.190
 -0.195
 -0.175
 -0.175
 -0.165
 -0.160
 -0.185
 -0.185
 -0.185
 -0.180
 -0.160
 -0.175
 -0.175
 -0.195
 -0.170
 -0.180
 -0.175
 -0.170
 -0.180
 -0.185
 -0.190
 -0.165
 -0.160
 -0.170
 -0.170
 -0.180
 -0.160
 -0.160
 -0.160
 -0.160
 -0.165
 -0.185
 -0.175
 -0.170
 -0.160
 -0.155
 -0.175
 -0.180
 -0.165
 -0.165
 -0.160
 -0.155
 -0.165
 -0.170
 -0.155
 -0.135
 -0.110
 -0.060
  0.065
  0.385
  0.760
  0.830
  0.590
  0.360
  0.235
  0.195
  0.155
  0.100
  0.015
 -0.065
 -0.195
 -0.350
 -0.485
 -0.630
 -0.790
 -0.985
 -1.190
 -1.370
 -1.525
 -1.645
 -1.750
 -1.885
 -2.020
 -2.175
 -2.330
 -2.445
 -2.520
 -2.600
 -2.685
 -2.775
 -2.835
 -2.900
 -2.920
 -2.950
 -2.985
 -3.030
 -3.045
 -3.040
 -3.040
 -3.040
 -3.045
 -3.030
 -3.005
 -2.935
 -2.860
 -2.785
 -2.680
 -2.570
 -2.425
 -2.285
 -2.090
 -1.895
 -1.690
 -1.475
 -1.240
 -1.010
 -0.775
 -0.575
 -0.380
 -0.200
 -0.020
  0.140
  0.305
  0.435
  0.550
  0.645
  0.740
  0.795
  0.855
  0.885
  0.925
  0.970
  1.005
  1.060
  1.105
  1.140
  1.170
  1.195
  1.240
  1.285
  1.330
  1.360
  1.395
  1.425
  1.470
  1.525
  1.565
  1.600
  1.625
  1.670
  1.705
  1.760
  1.790
  1.830
  1.860
  1.900
  1.945
  1.985
  2.030
  2.040
  2.060
  2.060
  2.095
  2.120
  2.130
  2.130
  2.130
  2.115
  2.125
  2.130
  2.115
  2.080
  2.055
  2.025
  2.000
  1.980
  1.935
  1.890
  1.835
  1.780
  1.725
  1.675
  1.620
  1.555
  1.465
  1.405
  1.350
  1.280
  1.225
  1.170
  1.080
  1.020
  0.950
  0.890
  0.845
  0.785
  0.710
  0.655
  0.615
  0.575
  0.530
  0.485
  0.420
  0.380
  0.355
  0.340
  0.315
  0.265
  0.240
  0.205
  0.185
  0.175
  0.175
  0.155
  0.130
  0.100
  0.100
  0.115
  0.095
  0.080
  0.065
  0.055
  0.050
  0.055
  0.045
  0.045
  0.030
  0.020
  0.030
  0.035
  0.030
  0.020
  0.010
  0.005
  0.015
  0.020
  0.010
  0.015
  0.010
  0.005
  0.010
  0.020
  0.025
  0.015
  0.015
 -0.005
  0.010
  0.030
  0.025
  0.030
  0.010
  0.005
  0.015
  0.035
  0.025
  0.015
  0.015
  0.010
  0.015
  0.020
  0.025
  0.020
  0.010
  0.005
  0.010
  0.025
  0.025
  0.000
 -0.010
 -0.015
 -0.005
  0.005
  0.000
 -0.010
 -0.025
 -0.020
 -0.025
 -0.015
 -0.010
 -0.030
 -0.040
 -0.050
 -0.050
 -0.050
 -0.035
 -0.045
 -0.045
 -0.060
 -0.045
 -0.040
 -0.035
 -0.030
 -0.035
 -0.035
 -0.045
 -0.030
 -0.030
 -0.030
 -0.050
 -0.050
 -0.050
 -0.040
 -0.040
 -0.040
 -0.055
 -0.070
 -0.095
 -0.090
 -0.095
 -0.095
 -0.120
 -0.125
 -0.130
 -0.130
 -0.140
 -0.150
 -0.170
 -0.180
 -0.180
 -0.175
 -0.170
 -0.175
 -0.185
 -0.185
 -0.170
 -0.155
 -0.150
 -0.155
 -0.170
 -0.175
 -0.175
 -0.170
 -0.170
 -0.165
 -0.170
 -0.170
 -0.170
 -0.170
 -0.160
 -0.160
 -0.170
 -0.180
 -0.170
 -0.160
 -0.165
 -0.160
 -0.170
 -0.165
 -0.170
 -0.160
 -0.155
 -0.160
 -0.175
 -0.175
 -0.155
 -0.155
 -0.140
 -0.125
 -0.120
 -0.070
  0.060
  0.375
  0.740
  0.885
  0.695
  0.455
  0.325
  0.300
  0.265
  0.230
  0.200
  0.180
  0.155
  0.120
  0.070
 -0.010
 -0.135
 -0.285
 -0.445
 -0.620
 -0.800
 -1.005
 -1.235
 -1.480
 -1.680
 -1.825
 -1.985
 -2.110
 -2.225
 -2.330
 -2.425
 -2.535
 -2.635
 -2.740
 -2.825
 -2.870
 -2.905
 -2.925
 -2.940
 -2.985
 -3.005
 -3.035
 -3.025
 -3.030
 -3.030
 -3.015
 -3.025
 -2.985
 -2.940
 -2.875
 -2.790
 -2.685
 -2.600
 -2.480
 -2.350
 -2.210
 -2.065
 -1.900
 -1.720
 -1.530
 -1.315
 -1.125
 -0.930
 -0.745
 -0.580
 -0.400
 -0.215
 -0.030
  0.090
  0.210
  0.310
  0.435
  0.555
  0.655
  0.725
  0.780
  0.815
  0.855
  0.895
  0.950
  0.985
  1.015
  1.040
  1.060
  1.115
  1.170
  1.205
  1.245
  1.265
  1.300
  1.335
  1.395
  1.435
  1.475
  1.500
  1.530
  1.585
  1.625
  1.675
  1.715
  1.740
  1.755
  1.800
  1.840
  1.865
  1.900
  1.920
  1.940
  1.965
  2.000
  2.025
  2.050
  2.045
  2.060
  2.065
  2.080
  2.080
  2.075
  2.075
  2.050
  2.045
  2.030
  1.995
  1.975
  1.925
  1.870
  1.845
  1.820
  1.770
  1.710
  1.650
  1.590
  1.530
  1.480
  1.420
  1.350
  1.280
  1.230
  1.160
  1.110
  1.045
  0.980
  0.920
  0.855
  0.805
  0.760
  0.710
  0.655
  0.610
  0.555
  0.515
  0.480
  0.450
  0.410
  0.375
  0.340
  0.310
  0.290
  0.260
  0.250
  0.220
  0.190
  0.175
  0.165
  0.145
  0.130
  0.105
  0.090
  0.090
  0.090
  0.080
  0.060
  0.050
  0.040
  0.040
  0.045
  0.040
  0.030
  0.015
  0.005
  0.005
  0.005
  0.000
  0.010
 -0.005
  0.000
 -0.015
  0.005
  0.010
 -0.005
  0.000
 -0.005
 -0.010
  0.000
  0.010
  0.000
 -0.010
 -0.010
 -0.010
  0.005
  0.015
  0.010
 -0.005
 -0.005
  0.005
  0.005
  0.015
  0.010
  0.015
 -0.010
  0.000
  0.020
  0.015
  0.015
  0.010
 -0.005
  0.010
  0.025
  0.030
  0.010
  0.000
  0.000
 -0.010
  0.005
  0.005
  0.010
 -0.015
 -0.025
 -0.005
 -0.005
 -0.010
 -0.030
 -0.030
 -0.045
 -0.035
 -0.035
 -0.035
 -0.040
 -0.055
 -0.075
 -0.070
 -0.055
 -0.070
 -0.065
 -0.085
 -0.095
 -0.095
 -0.085
 -0.080
 -0.090
 -0.095
 -0.105
 -0.110
 -0.110
 -0.100
 -0.100
 -0.115
 -0.130
 -0.120
 -0.110
 -0.115
 -0.115
 -0.120
 -0.130
 -0.130
 -0.120
 -0.110
 -0.125
 -0.140
 -0.150
 -0.150
 -0.145
 -0.145
 -0.135
 -0.150
 -0.160
 -0.135
 -0.130
 -0.135
 -0.135
 -0.150
 -0.145
 -0.145
 -0.130
 -0.125
 -0.125
 -0.140
 -0.135
 -0.130
 -0.120
 -0.110
 -0.115
 -0.120
 -0.120
 -0.115
 -0.105
 -0.105
 -0.115
 -0.135
 -0.150
 -0.150
 -0.150
 -0.155
 -0.155
 -0.180
 -0.185
 -0.185
 -0.180
 -0.185
 -0.195
 -0.205
 -0.200
 -0.175
 -0.115
  0.045
  0.405
  0.755
  0.770
  0.525
  0.320
  0.240
  0.205
  0.145
  0.080
  0.010
 -0.080
 -0.205
 -0.370
 -0.535
 -0.730
 -0.920
 -1.085
 -1.230
 -1.375
 -1.490
 -1.625
 -1.755
 -1.910
 -2.090
 -2.265
 -2.385
 -2.500
 -2.580
 -2.665
 -2.745
 -2.815
 -2.875
 -2.930
 -2.975
 -2.990
 -2.995
 -3.030
 -3.050
 -3.070
 -3.065
 -3.045
 -3.020
 -2.995
 -2.950
 -2.875
 -2.765
 -2.630
 -2.495
 -2.345
 -2.175
 -1.965
 -1.770
 -1.530
 -1.285
 -1.065
 -0.845
 -0.655
 -0.435
 -0.245
 -0.065
  0.090
  0.240
  0.380
  0.480
  0.585
  0.660
  0.705
  0.750
  0.780
  0.830
  0.890
  0.930
  0.960
  0.995
  1.040
  1.060
  1.115
  1.145
  1.190
  1.205
  1.245
  1.280
  1.330
  1.370
  1.400
  1.430
  1.460
  1.510
  1.540
  1.590
  1.615
  1.640
  1.665
  1.715
  1.770
  1.800
  1.830
  1.855
  1.875
  1.905
  1.935
  1.940
  1.945
  1.945
  1.940
  1.950
  1.950
  1.940
  1.920
  1.900
  1.850
  1.830
  1.810
  1.770
  1.720
  1.655
  1.600
  1.545
  1.495
  1.430
  1.370
  1.290
  1.220
  1.165
  1.115
  1.060
  0.980
  0.920
  0.850
  0.815
  0.755
  0.710
  0.640
  0.575
  0.530
  0.490
  0.460
  0.415
  0.360
  0.320
  0.280
  0.250
  0.225
  0.200
  0.170
  0.130
  0.110
  0.090
  0.090
  0.065
  0.060
  0.030
  0.010
  0.015
  0.005
 -0.005
 -0.005
 -0.035
 -0.035
 -0.040
 -0.035
 -0.035
 -0.035
 -0.045
 -0.050
 -0.045
 -0.035
 -0.040
 -0.055
 -0.055
 -0.055
 -0.045
 -0.045
 -0.040
 -0.040
 -0.040
 -0.055
 -0.045
 -0.040
 -0.025
 -0.015
 -0.030
 -0.040
 -0.030
 -0.015
 -0.015
 -0.005
 -0.025
 -0.020
 -0.025
 -0.010
 -0.005
  0.000
 -0.010
 -0.025
 -0.020
 -0.010
 -0.025
 -0.010
 -0.025
 -0.040
 -0.040
 -0.025
 -0.025
 -0.025
 -0.040
 -0.055
 -0.055
 -0.045
 -0.050
 -0.055
 -0.065
 -0.075
 -0.070
 -0.075
 -0.075
 -0.085
 -0.105
 -0.110
 -0.105
 -0.090
 -0.100
 -0.115
 -0.115
 -0.130
 -0.125
 -0.115
 -0.120
 -0.130
 -0.145
 -0.155
 -0.150
 -0.140
 -0.140
 -0.155
 -0.165
 -0.165
 -0.160
 -0.155
 -0.145
 -0.155
 -0.170
 -0.180
 -0.180
 -0.155
 -0.170
 -0.175
 -0.185
 -0.195
 -0.190
 -0.180
 -0.190
 -0.185
 -0.185
 -0.205
 -0.195
 -0.175
 -0.185
 -0.185
 -0.190
 -0.195
 -0.190
 -0.190
 -0.195
 -0.190
 -0.205
 -0.205
 -0.210
 -0.195
 -0.200
 -0.195
 -0.220
 -0.220
 -0.205
 -0.190
 -0.195
 -0.195
 -0.215
 -0.215
 -0.200
 -0.195
 -0.195
 -0.190
 -0.220
 -0.215
 -0.195
 -0.180
 -0.165
 -0.165
 -0.120
  0.025
  0.395
  0.750
  0.715
  0.460
  0.280
  0.205
  0.170
  0.125
  0.070
 -0.020
 -0.155
 -0.310
 -0.475
 -0.645
 -0.850
 -1.060
 -1.255
 -1.415
 -1.540
 -1.670
 -1.835
 -2.035
 -2.270
 -2.475
 -2.620
 -2.715
 -2.810
 -2.905
 -2.995
 -3.045
 -3.070
 -3.090
 -3.105
 -3.115
 -3.115
 -3.135
 -3.120
 -3.105
 -3.085
 -3.050
 -3.020
 -2.935
 -2.800
 -2.655
 -2.455
 -2.255
 -2.035
 -1.795
 -1.535
 -1.290
 -1.040
 -0.830
 -0.645
 -0.460
 -0.260
 -0.080
  0.080
  0.230
  0.345
  0.445
  0.530
  0.610
  0.660
  0.700
  0.740
  0.780
  0.830
  0.855
  0.890
  0.930
  0.955
  0.985
  1.025
  1.065
  1.115
  1.135
  1.160
  1.185
  1.230
  1.285
  1.335
  1.360
  1.400
  1.435
  1.480
  1.535
  1.570
  1.605
  1.625
  1.665
  1.720
  1.755
  1.780
  1.805
  1.830
  1.845
  1.875
  1.890
  1.900
  1.905
  1.910
  1.905
  1.915
  1.905
  1.890
  1.860
  1.835
  1.800
  1.765
  1.730
  1.690
  1.625
  1.565
  1.500
  1.435
  1.380
  1.320
  1.260
  1.165
  1.095
  1.040
  0.970
  0.910
  0.845
  0.770
  0.705
  0.650
  0.605
  0.545
  0.490
  0.430
  0.380
  0.335
  0.315
  0.265
  0.230
  0.185
  0.160
  0.135
  0.130
  0.090
  0.080
  0.050
  0.040
  0.030
  0.025
  0.005
  0.005
 -0.010
 -0.020
 -0.030
 -0.005
 -0.015
 -0.025
 -0.035
 -0.040
 -0.025
 -0.025
 -0.015
 -0.025
 -0.025
 -0.035
 -0.030
 -0.020
 -0.010
 -0.020
 -0.035
 -0.015
 -0.010
  0.000
  0.000
  0.005
 -0.020
 -0.025
 -0.020
 -0.005
  0.000
 -0.010
 -0.020
 -0.020
 -0.025
 -0.005
 -0.005
 -0.015
 -0.035
 -0.040
 -0.030
 -0.035
 -0.030
 -0.040
 -0.060
 -0.075
 -0.065
 -0.065
 -0.060
 -0.080
 -0.085
 -0.100
 -0.105
 -0.105
 -0.085
 -0.105
 -0.105
 -0.120
 -0.120
 -0.115
 -0.130
 -0.120
 -0.135
 -0.150
 -0.130
 -0.140
 -0.135
 -0.150
 -0.165
 -0.170
 -0.175
 -0.155
 -0.145
 -0.155
 -0.175
 -0.175
 -0.185
 -0.160
 -0.175
 -0.180
 -0.195
 -0.185
 -0.185
 -0.170
 -0.180
 -0.180
 -0.200
 -0.210
 -0.195
 -0.190
 -0.195
 -0.190
 -0.205
 -0.205
 -0.205
 -0.195
 -0.200
 -0.190
 -0.215
 -0.215
 -0.215
 -0.190
 -0.190
 -0.210
 -0.215
 -0.210
 -0.215
 -0.200
 -0.195
 -0.210
 -0.210
 -0.220
 -0.205
 -0.200
 -0.200
 -0.210
 -0.220
 -0.215
 -0.200
 -0.200
 -0.210
 -0.200
 -0.215
 -0.220
 -0.205
 -0.205
 -0.200
 -0.205
 -0.205
 -0.200
 -0.160
 -0.105
  0.070
  0.435
  0.805
  0.835
  0.565
  0.315
  0.205
  0.160
  0.110
  0.015
 -0.080
 -0.185
 -0.320
 -0.485
 -0.685
 -0.895
 -1.115
 -1.305
 -1.490
 -1.655
 -1.835
 -1.990
 -2.195
 -2.380
 -2.540
 -2.645
 -2.730
 -2.830
 -2.925
 -2.970
 -3.015
 -3.045
 -3.075
 -3.090
 -3.100
 -3.095
 -3.095
 -3.095
 -3.115
 -3.105
 -3.070
 -3.020
 -2.955
 -2.860
 -2.750
 -2.595
 -2.415
 -2.200
 -1.960
 -1.725
 -1.510
 -1.255
 -1.005
 -0.765
 -0.565
 -0.360
 -0.170
  0.000
  0.180
  0.325
  0.460
  0.545
  0.610
  0.655
  0.695
  0.745
  0.775
  0.810
  0.835
  0.855
  0.895
  0.930
  0.950
  0.985
  0.990
  1.015
  1.045
  1.085
  1.110
  1.130
  1.150
  1.185
  1.220
  1.250
  1.280
  1.320
  1.340
  1.375
  1.420
  1.455
  1.490
  1.525
  1.550
  1.580
  1.615
  1.645
  1.680
  1.720
  1.730
  1.745
  1.785
  1.805
  1.820
  1.835
  1.835
  1.830
  1.830
  1.840
  1.850
  1.845
  1.805
  1.780
  1.760
  1.735
  1.705
  1.670
  1.610
  1.550
  1.510
  1.465
  1.415
  1.345
  1.265
  1.200
  1.135
  1.080
  1.000
  0.935
  0.855
  0.795
  0.735
  0.705
  0.635
  0.580
  0.515
  0.470
  0.415
  0.390
  0.350
  0.310
  0.270
  0.230
  0.210
  0.190
  0.170
  0.145
  0.125
  0.095
  0.090
  0.085
  0.070
  0.060
  0.045
  0.030
  0.030
  0.025
  0.035
  0.025
  0.015
  0.000
  0.015
  0.020
  0.030
  0.030
  0.005
 -0.005
  0.005
  0.015
  0.020
  0.015
  0.010
  0.000
  0.015
  0.025
  0.020
  0.020
  0.015
  0.005
  0.015
  0.015
  0.025
  0.015
  0.000
  0.000
  0.000
  0.005
  0.010
  0.000
 -0.020
 -0.020
 -0.005
 -0.005
 -0.015
 -0.010
 -0.025
 -0.025
 -0.030
 -0.025
 -0.030
 -0.035
 -0.055
 -0.060
 -0.045
 -0.040
 -0.055
 -0.065
 -0.080
 -0.090
 -0.090
 -0.075
 -0.085
 -0.085
 -0.110
 -0.115
 -0.110
 -0.100
 -0.105
 -0.115
 -0.130
 -0.140
 -0.125
 -0.120
 -0.140
 -0.140
 -0.145
 -0.155
 -0.160
 -0.135
 -0.145
 -0.140
 -0.160
 -0.160
 -0.160
 -0.145
 -0.150
 -0.170
 -0.165
 -0.180
 -0.170
 -0.160
 -0.155
 -0.180
 -0.180
 -0.180
 -0.185
 -0.180
 -0.165
 -0.175
 -0.185
 -0.195
 -0.180
 -0.175
 -0.180
 -0.180
 -0.195
 -0.195
 -0.195
 -0.175
 -0.175
 -0.185
 -0.195
 -0.205
 -0.200
 -0.195
 -0.185
 -0.195
 -0.205
 -0.200
 -0.195
 -0.180
 -0.180
 -0.195
 -0.205
 -0.215
 -0.195
 -0.185
 -0.195
 -0.190
 -0.205
 -0.215
 -0.195
 -0.190
 -0.195
 -0.190
 -0.200
 -0.185
 -0.175
 -0.160
 -0.150
 -0.100
  0.015
  0.340
  0.770
  0.880
  0.645
  0.375
  0.250
  0.205
  0.160
  0.115
  0.030
 -0.090
 -0.245
 -0.420
 -0.610
 -0.825
 -1.080
 -1.280
 -1.460
 -1.630
 -1.785
 -1.965
 -2.190
 -2.400
 -2.560
 -2.675
 -2.750
 -2.835
 -2.915
 -2.985
 -3.030
 -3.055
 -3.070
 -3.090
 -3.090
 -3.105
 -3.115
 -3.110
 -3.105
 -3.080
 -3.055
 -3.020
 -2.960
 -2.855
 -2.710
 -2.570
 -2.400
 -2.190
 -1.990
 -1.730
 -1.480
 -1.210
 -0.970
 -0.755
 -0.555
 -0.350
 -0.155
  0.045
  0.205
  0.370
  0.490
  0.585
  0.670
  0.725
  0.780
  0.810
  0.830
  0.870
  0.920
  0.945
  0.975
  0.985
  1.000
  1.025
  1.050
  1.075
  1.090
  1.110
  1.120
  1.130
  1.160
  1.195
  1.215
  1.240
  1.265
  1.280
  1.330
  1.380
  1.425
  1.460
  1.475
  1.505
  1.545
  1.580
  1.610
  1.640
  1.660
  1.685
  1.710
  1.750
  1.765
  1.790
  1.790
  1.805
  1.825
  1.835
  1.840
  1.845
  1.815
  1.815
  1.805
  1.800
  1.785
  1.750
  1.705
  1.675
  1.630
  1.600
  1.550
  1.505
  1.440
  1.380
  1.335
  1.285
  1.215
  1.160
  1.085
  1.010
  0.965
  0.905
  0.845
  0.770
  0.715
  0.650
  0.600
  0.560
  0.500
  0.445
  0.385
  0.340
  0.315
  0.285
  0.255
  0.230
  0.185
  0.150
  0.150
  0.125
  0.110
  0.090
  0.080
  0.045
  0.035
  0.055
  0.035
  0.030
  0.010
  0.015
  0.005
  0.010
  0.005
  0.010
 -0.010
 -0.010
 -0.010
  0.005
  0.000
 -0.005
 -0.020
 -0.020
 -0.005
  0.005
  0.000
 -0.005
 -0.010
 -0.010
 -0.005
  0.010
  0.005
  0.015
 -0.005
 -0.005
 -0.005
  0.010
  0.010
  0.005
 -0.010
 -0.005
  0.000
  0.005
  0.005
 -0.010
 -0.015
 -0.010
 -0.010
 -0.010
 -0.015
 -0.015
 -0.045
 -0.040
 -0.045
 -0.035
 -0.045
 -0.050
 -0.065
 -0.070
 -0.060
 -0.060
 -0.065
 -0.080
 -0.090
 -0.095
 -0.095
 -0.090
 -0.100
 -0.100
 -0.125
 -0.125
 -0.115
 -0.115
 -0.120
 -0.125
 -0.145
 -0.155
 -0.145
 -0.135
 -0.140
 -0.140
 -0.165
 -0.160
 -0.160
 -0.150
 -0.160
 -0.170
 -0.175
 -0.180
 -0.175
 -0.170
 -0.175
 -0.180
 -0.185
 -0.195
 -0.180
 -0.190
 -0.175
 -0.185
 -0.205
 -0.200
 -0.205
 -0.190
 -0.205
 -0.200
 -0.215
 -0.220
 -0.210
 -0.200
 -0.200
 -0.210
 -0.215
 -0.210
 -0.220
 -0.210
 -0.210
 -0.205
 -0.215
 -0.215
 -0.220
 -0.205
 -0.195
 -0.205
 -0.230
 -0.225
 -0.225
 -0.210
 -0.215
 -0.210
 -0.220
 -0.220
 -0.220
 -0.215
 -0.220
 -0.205
 -0.235
 -0.230
 -0.225
 -0.215
 -0.215
 -0.215
 -0.230
 -0.225
 -0.215
 -0.200
 -0.200
 -0.205
 -0.210
 -0.200
 -0.180
 -0.125
  0.045
  0.370
  0.670
  0.615
  0.380
  0.220
  0.165
  0.105
  0.035
 -0.045
 -0.135
 -0.245
 -0.380
 -0.540
 -0.735
 -0.945
 -1.140
 -1.290
 -1.425
 -1.565
 -1.710
 -1.860
 -2.035
 -2.225
 -2.390
 -2.510
 -2.625
 -2.710
 -2.800
 -2.870
 -2.955
 -2.990
 -3.025
 -3.055
 -3.060
 -3.070
 -3.080
 -3.105
 -3.100
 -3.095
 -3.090
 -3.070
 -3.045
 -3.025
 -2.985
 -2.905
 -2.805
 -2.680
 -2.535
 -2.365
 -2.180
 -1.960
 -1.715
 -1.450
 -1.195
 -0.965
 -0.760
 -0.575
 -0.360
 -0.165
  0.000
  0.165
  0.290
  0.415
  0.525
  0.605
  0.660
  0.700
  0.720
  0.760
  0.805
  0.855
  0.880
  0.920
  0.930
  0.955
  0.990
  1.020
  1.045
  1.065
  1.080
  1.115
  1.155
  1.185
  1.200
  1.225
  1.250
  1.275
  1.315
  1.345
  1.380
  1.410
  1.420
  1.460
  1.500
  1.540
  1.565
  1.590
  1.630
  1.650
  1.690
  1.720
  1.745
  1.775
  1.805
  1.820
  1.860
  1.890
  1.910
  1.920
  1.915
  1.920
  1.940
  1.965
  1.950
  1.955
  1.920
  1.900
  1.895
  1.885
  1.855
  1.815
  1.770
  1.730
  1.695
  1.650
  1.600
  1.540
  1.470
  1.400
  1.350
  1.290
  1.220
  1.135
  1.065
  0.990
  0.950
  0.885
  0.825
  0.760
  0.695
  0.640
  0.600
  0.555
  0.520
  0.470
  0.405
  0.370
  0.345
  0.310
  0.265
  0.240
  0.195
  0.160
  0.145
  0.130
  0.110
  0.085
  0.060
  0.030
  0.030
  0.025
  0.010
 -0.005
 -0.025
 -0.030
 -0.030
 -0.030
 -0.040
 -0.050
 -0.055
 -0.050
 -0.060
 -0.040
 -0.055
 -0.065
 -0.060
 -0.065
 -0.070
 -0.060
 -0.055
 -0.050
 -0.060
 -0.070
 -0.055
 -0.050
 -0.050
 -0.050
 -0.065
 -0.050
 -0.045
 -0.045
 -0.045
 -0.040
 -0.055
 -0.045
 -0.035
 -0.035
 -0.040
 -0.040
 -0.060
 -0.070
 -0.055
 -0.035
 -0.055
 -0.070
 -0.070
 -0.075
 -0.070
 -0.060
 -0.065
 -0.080
 -0.100
 -0.105
 -0.095
 -0.085
 -0.095
 -0.110
 -0.120
 -0.120
 -0.120
 -0.105
 -0.110
 -0.120
 -0.120
 -0.145
 -0.140
 -0.135
 -0.125
 -0.145
 -0.160
 -0.165
 -0.160
 -0.155
 -0.155
 -0.165
 -0.175
 -0.185
 -0.175
 -0.170
 -0.175
 -0.180
 -0.185
 -0.175
 -0.185
 -0.185
 -0.180
 -0.190
 -0.195
 -0.200
 -0.200
 -0.195
 -0.195
 -0.205
 -0.215
 -0.215
 -0.200
 -0.200
 -0.200
 -0.210
 -0.215
 -0.205
 -0.190
 -0.200
 -0.205
 -0.205
 -0.215
 -0.215
 -0.220
 -0.200
 -0.210
 -0.210
 -0.215
 -0.215
 -0.205
 -0.200
 -0.215
 -0.210
 -0.210
 -0.225
 -0.205
 -0.210
 -0.205
 -0.215
 -0.225
 -0.225
 -0.210
 -0.195
 -0.210
 -0.215
 -0.215
 -0.225
 -0.220
 -0.205
 -0.210
 -0.210
 -0.225
 -0.220
 -0.205
 -0.215
 -0.200
 -0.215
 -0.225
 -0.220
 -0.210
 -0.185
 -0.190
 -0.170
 -0.125
  0.020
  0.395
  0.790
  0.880
  0.620
  0.335
  0.215
  0.170
  0.140
  0.070
 -0.010
 -0.110
 -0.230
 -0.370
 -0.525
 -0.710
 -0.935
 -1.145
 -1.340
 -1.500
 -1.625
 -1.780
 -1.935
 -2.125
 -2.330
 -2.510
 -2.630
 -2.735
 -2.810
 -2.910
 -2.985
 -3.025
 -3.050
 -3.070
 -3.090
 -3.120
 -3.125
 -3.120
 -3.120
 -3.110
 -3.115
 -3.105
 -3.090
 -3.045
 -3.000
 -2.910
 -2.810
 -2.685
 -2.540
 -2.365
 -2.155
 -1.940
 -1.700
 -1.475
 -1.235
 -0.995
 -0.785
 -0.580
 -0.410
 -0.230
 -0.070
  0.095
  0.250
  0.395
  0.490
  0.570
  0.645
  0.695
  0.750
  0.790
  0.820
  0.840
  0.880
  0.910
  0.945
  0.975
  1.000
  1.020
  1.055
  1.080
  1.120
  1.135
  1.160
  1.175
  1.210
  1.240
  1.285
  1.310
  1.345
  1.355
  1.375
  1.420
  1.450
  1.480
  1.510
  1.545
  1.575
  1.620
  1.645
  1.675
  1.700
  1.705
  1.730
  1.775
  1.795
  1.800
  1.830
  1.835
  1.845
  1.870
  1.885
  1.890
  1.890
  1.875
  1.875
  1.870
  1.865
  1.850
  1.825
  1.800
  1.765
  1.745
  1.710
  1.670
  1.630
  1.570
  1.515
  1.470
  1.420
  1.355
  1.280
  1.200
  1.135
  1.080
  1.020
  0.945
  0.860
  0.790
  0.705
  0.660
  0.610
  0.550
  0.485
  0.425
  0.395
  0.345
  0.325
  0.290
  0.250
  0.215
  0.200
  0.180
  0.185
  0.145
  0.125
  0.100
  0.080
  0.065
  0.060
  0.060
  0.040
  0.015
  0.020
  0.015
  0.025
  0.005
  0.000
 -0.005
 -0.020
 -0.005
 -0.005
 -0.015
 -0.015
 -0.025
 -0.030
 -0.025
 -0.015
 -0.005
 -0.025
 -0.030
 -0.035
 -0.025
  0.000
  0.005
 -0.010
 -0.010
 -0.020
 -0.010
 -0.005
 -0.005
 -0.005
 -0.015
 -0.015
 -0.005
 -0.005
 -0.010
 -0.020
 -0.020
 -0.015
 -0.020
 -0.005
 -0.005
 -0.015
 -0.035
 -0.035
 -0.030
 -0.020
 -0.020
 -0.045
 -0.040
 -0.055
 -0.045
 -0.040
 -0.045
 -0.055
 -0.065
 -0.070
 -0.065
 -0.060
 -0.080
 -0.085
 -0.095
 -0.100
 -0.090
 -0.095
 -0.080
 -0.100
 -0.110
 -0.110
 -0.110
 -0.095
 -0.110
 -0.110
 -0.125
 -0.130
 -0.125
 -0.100
 -0.120
 -0.120
 -0.130
 -0.135
 -0.135
 -0.120
 -0.130
 -0.130
 -0.145
 -0.150
 -0.140
 -0.130
 -0.130
 -0.135
 -0.150
 -0.150
 -0.140
 -0.135
 -0.130
 -0.135
 -0.145
 -0.150
 -0.145
 -0.140
 -0.150
 -0.140
 -0.150
 -0.155
 -0.150
 -0.145
 -0.145
 -0.140
 -0.155
 -0.150
 -0.145
 -0.135
 -0.140
 -0.140
 -0.155
 -0.155
 -0.145
 -0.140
 -0.135
 -0.145
 -0.145
 -0.145
 -0.150
 -0.135
 -0.145
 -0.135
 -0.155
 -0.150
 -0.145
 -0.130
 -0.130
 -0.135
 -0.160
 -0.155
 -0.140
 -0.135
 -0.135
 -0.130
 -0.150
 -0.140
 -0.120
 -0.095
 -0.080
 -0.035
  0.120
  0.505
  0.870
  0.880
  0.600
  0.365
  0.280
  0.250
  0.210
  0.145
  0.060
 -0.055
 -0.195
 -0.355
 -0.525
 -0.695
 -0.915
 -1.125
 -1.295
 -1.445
 -1.585
 -1.705
 -1.895
 -2.110
 -2.315
 -2.470
 -2.565
 -2.630
 -2.735
 -2.830
 -2.910
 -2.965
 -2.970
 -2.990
 -3.020
 -3.025
 -3.045
 -3.055
 -3.060
 -3.040
 -3.045
 -3.035
 -3.030
 -3.000
 -2.950
 -2.845
 -2.755
 -2.625
 -2.495
 -2.315
 -2.105
 -1.855
 -1.620
 -1.385
 -1.135
 -0.900
 -0.680
 -0.470
 -0.285
 -0.110
  0.050
  0.210
  0.365
  0.495
  0.575
  0.630
  0.670
  0.715
  0.775
  0.805
  0.835
  0.875
  0.890
  0.905
  0.950
  0.985
  1.000
  1.025
  1.045
  1.075
  1.100
  1.130
  1.160
  1.195
  1.210
  1.235
  1.270
  1.320
  1.340
  1.375
  1.400
  1.420
  1.465
  1.505
  1.535
  1.560
  1.595
  1.625
  1.665
  1.705
  1.730
  1.745
  1.770
  1.785
  1.825
  1.840
  1.850
  1.865
  1.860
  1.865
  1.870
  1.875
  1.870
  1.860
  1.825
  1.810
  1.805
  1.770
  1.730
  1.695
  1.640
  1.590
  1.555
  1.520
  1.465
  1.405
  1.335
  1.275
  1.215
  1.155
  1.090
  1.005
  0.945
  0.870
  0.815
  0.760
  0.710
  0.635
  0.560
  0.515
  0.470
  0.430
  0.395
  0.335
  0.290
  0.250
  0.230
  0.210
  0.185
  0.160
  0.140
  0.140
  0.130
  0.125
  0.100
  0.090
  0.065
  0.065
  0.060
  0.060
  0.050
  0.045
  0.025
  0.035
  0.030
  0.040
  0.035
  0.030
  0.005
  0.015
  0.015
  0.035
  0.035
  0.025
  0.025
  0.030
  0.025
  0.035
  0.040
  0.015
  0.010
  0.020
  0.025
  0.030
  0.025
  0.035
  0.025
  0.020
  0.030
  0.040
  0.030
  0.025
  0.025
  0.000
  0.020
  0.030
  0.020
  0.000
  0.000
 -0.005
  0.000
  0.000
  0.005
  0.000
 -0.030
 -0.030
 -0.030
 -0.015
 -0.035
 -0.035
 -0.060
 -0.060
 -0.055
 -0.045
 -0.055
 -0.055
 -0.075
 -0.085
 -0.075
 -0.070
 -0.070
 -0.085
 -0.090
 -0.105
 -0.095
 -0.085
 -0.095
 -0.115
 -0.110
 -0.120
 -0.110
 -0.105
 -0.120
 -0.120
 -0.135
 -0.135
 -0.120
 -0.105
 -0.105
 -0.130
 -0.135
 -0.135
 -0.130
 -0.115
 -0.130
 -0.130
 -0.140
 -0.140
 -0.140
 -0.125
 -0.135
 -0.135
 -0.145
 -0.160
 -0.150
 -0.135
 -0.140
 -0.155
 -0.150
 -0.155
 -0.155
 -0.125
 -0.140
 -0.145
 -0.150
 -0.155
 -0.145
 -0.130
 -0.135
 -0.155
 -0.155
 -0.165
 -0.150
 -0.140
 -0.140
 -0.155
 -0.150
 -0.165
 -0.150
 -0.140
 -0.150
 -0.150
 -0.175
 -0.170
 -0.150
 -0.145
 -0.155
 -0.155
 -0.160
 -0.160
 -0.150
 -0.145
 -0.140
 -0.145
 -0.150
 -0.145
 -0.120
 -0.065
  0.120
  0.480
  0.720
  0.645
  0.400
  0.270
  0.230
  0.195
  0.125
  0.070
 -0.010
 -0.110
 -0.245
 -0.395
 -0.560
 -0.735
 -0.930
 -1.100
 -1.275
 -1.410
 -1.565
 -1.705
 -1.845
 -1.990
 -2.195
 -2.370
 -2.520
 -2.600
 -2.680
 -2.770
 -2.860
 -2.930
 -2.975
 -2.990
 -3.020
 -3.030
 -3.050
 -3.075
 -3.085
 -3.075
 -3.070
 -3.050
 -3.050
 -3.030
 -3.025
 -2.970
 -2.895
 -2.795
 -2.695
 -2.555
 -2.425
 -2.220
 -1.990
 -1.735
 -1.505
 -1.255
 -1.015
 -0.795
 -0.585
 -0.390
 -0.200
 -0.050
  0.110
  0.265
  0.410
  0.530
  0.615
  0.670
  0.710
  0.750
  0.795
  0.855
  0.895
  0.915
  0.945
  0.975
  1.015
  1.055
  1.090
  1.110
  1.120
  1.155
  1.180
  1.225
  1.240
  1.260
  1.285
  1.310
  1.355
  1.390
  1.415
  1.445
  1.470
  1.505
  1.550
  1.585
  1.615
  1.645
  1.675
  1.690
  1.730
  1.765
  1.805
  1.820
  1.840
  1.855
  1.885
  1.920
  1.935
  1.930
  1.935
  1.955
  1.955
  1.970
  1.970
  1.955
  1.935
  1.915
  1.905
  1.890
  1.855
  1.820
  1.760
  1.725
  1.685
  1.645
  1.605
  1.520
  1.455
  1.400
  1.350
  1.290
  1.225
  1.160
  1.105
  1.025
  0.975
  0.925
  0.870
  0.800
  0.730
  0.675
  0.640
  0.590
  0.535
  0.480
  0.435
  0.400
  0.355
  0.340
  0.300
  0.260
  0.215
  0.195
  0.185
  0.170
  0.130
  0.115
  0.090
  0.080
  0.080
  0.075
  0.070
  0.055
  0.035
  0.025
  0.025
  0.035
  0.040
  0.020
  0.005
 -0.010
  0.015
  0.010
  0.005
  0.000
 -0.005
 -0.005
  0.010
  0.015
  0.015
  0.000
  0.000
  0.005
  0.015
  0.035
  0.035
  0.010
  0.010
  0.020
  0.035
  0.055
  0.045
  0.050
  0.035
  0.050
  0.070
  0.075
  0.045
  0.055
  0.045
  0.050
  0.055
  0.055
  0.035
  0.045
  0.020
  0.010
  0.000
 -0.005
 -0.005
 -0.030
 -0.055
 -0.070
 -0.075
 -0.055
 -0.080
 -0.100
 -0.105
 -0.115
 -0.110
 -0.120
 -0.125
 -0.135
 -0.140
 -0.140
 -0.120
 -0.115
 -0.115
 -0.130
 -0.145
 -0.140
 -0.135
 -0.135
 -0.135
 -0.150
 -0.150
 -0.160
 -0.155
 -0.145
 -0.160
 -0.160
 -0.165
 -0.180
 -0.155
 -0.165
 -0.155
 -0.170
 -0.175
 -0.175
 -0.180
 -0.170
 -0.175
 -0.185
 -0.190
 -0.190
 -0.185
 -0.175
 -0.185
 -0.190
 -0.195
 -0.205
 -0.195
 -0.185
 -0.185
 -0.200
 -0.205
 -0.210
 -0.195
 -0.185
 -0.185
 -0.190
 -0.200
 -0.205
 -0.190
 -0.190
 -0.190
 -0.195
 -0.200
 -0.195
 -0.180
 -0.180
 -0.180
 -0.195
 -0.185
 -0.190
 -0.190
 -0.190
 -0.185
 -0.185
 -0.195
 -0.195
 -0.200
 -0.175
 -0.180
 -0.185
 -0.190
 -0.190
 -0.165
 -0.150
 -0.120
 -0.075
  0.065
  0.405
  0.750
  0.780
  0.500
  0.265
  0.185
  0.145
  0.115
  0.060
 -0.030
 -0.155
 -0.310
 -0.485
 -0.665
 -0.835
 -1.060
 -1.260
 -1.450
 -1.605
 -1.740
 -1.860
 -1.995
 -2.155
 -2.325
 -2.455
 -2.535
 -2.585
 -2.670
 -2.755
 -2.845
 -2.915
 -2.925
 -2.940
 -2.985
 -3.020
 -3.055
 -3.055
 -3.060
 -3.050
 -3.040
 -3.040
 -3.020
 -2.945
 -2.870
 -2.760
 -2.650
 -2.530
 -2.400
 -2.230
 -1.990
 -1.735
 -1.495
 -1.260
 -1.035
 -0.815
 -0.605
 -0.405
 -0.215
 -0.040
  0.130
  0.295
  0.440
  0.560
  0.640
  0.705
  0.745
  0.800
  0.855
  0.905
  0.950
  0.980
  1.025
  1.065
  1.105
  1.165
  1.190
  1.230
  1.265
  1.305
  1.350
  1.400
  1.435
  1.475
  1.505
  1.565
  1.600
  1.650
  1.685
  1.715
  1.750
  1.795
  1.840
  1.895
  1.910
  1.945
  1.950
  1.975
  2.000
  2.025
  2.040
  2.045
  2.045
  2.045
  2.045
  2.060
  2.025
  2.015
  1.975
  1.960
  1.940
  1.905
  1.850
  1.805
  1.750
  1.685
  1.645
  1.580
  1.525
  1.450
  1.375
  1.310
  1.245
  1.180
  1.105
  1.030
  0.960
  0.895
  0.840
  0.790
  0.725
  0.670
  0.610
  0.555
  0.510
  0.475
  0.440
  0.380
  0.340
  0.300
  0.280
  0.260
  0.235
  0.205
  0.170
  0.145
  0.125
  0.120
  0.095
  0.075
  0.050
  0.050
  0.035
  0.030
  0.035
  0.015
  0.000
 -0.010
  0.000
  0.000
 -0.015
 -0.025
 -0.030
 -0.045
 -0.030
 -0.030
 -0.040
 -0.040
 -0.055
 -0.060
 -0.045
 -0.025
 -0.025
 -0.040
 -0.050
 -0.045
 -0.040
 -0.025
 -0.030
 -0.045
 -0.045
 -0.045
 -0.030
 -0.020
 -0.025
 -0.035
 -0.030
 -0.030
 -0.020
 -0.015
 -0.010
 -0.015
 -0.035
 -0.030
 -0.015
 -0.010
 -0.005
 -0.010
 -0.015
 -0.030
 -0.020
 -0.020
 -0.025
 -0.020
 -0.035
 -0.045
 -0.040
 -0.020
 -0.030
 -0.040
 -0.055
 -0.065
 -0.055
 -0.055
 -0.060
 -0.065
 -0.095
 -0.100
 -0.075
 -0.070
 -0.080
 -0.075
 -0.085
 -0.085
 -0.065
 -0.050
 -0.060
 -0.060
 -0.070
 -0.070
 -0.060
 -0.055
 -0.075
 -0.070
 -0.085
 -0.095
 -0.075
 -0.065
 -0.070
 -0.085
 -0.095
 -0.115
 -0.130
 -0.135
 -0.145
 -0.155
 -0.155
 -0.180
 -0.185
 -0.155
 -0.170
 -0.190
 -0.205
 -0.210
 -0.195
 -0.195
 -0.195
 -0.185
 -0.195
 -0.200
 -0.185
 -0.185
 -0.195
 -0.200
 -0.200
 -0.210
 -0.200
 -0.180
 -0.185
 -0.190
 -0.205
 -0.200
 -0.200
 -0.190
 -0.185
 -0.190
 -0.215
 -0.205
 -0.185
 -0.180
 -0.185
 -0.185
 -0.185
 -0.185
 -0.150
 -0.110
 -0.015
  0.225
  0.605
  0.830
  0.675
  0.400
  0.250
  0.215
  0.180
  0.150
  0.135
  0.110
  0.055
 -0.030
 -0.160
 -0.315
 -0.495
 -0.690
 -0.910
 -1.145
 -1.375
 -1.605
 -1.810
 -1.940
 -2.090
 -2.205
 -2.320
 -2.425
 -2.545
 -2.660
 -2.755
 -2.825
 -2.875
 -2.915
 -2.925
 -2.970
 -3.010
 -3.040
 -3.060
 -3.065
 -3.060
 -3.040
 -3.035
 -3.030
 -2.990
 -2.920
 -2.825
 -2.685
 -2.580
 -2.440
 -2.295
 -2.115
 -1.890
 -1.645
 -1.390
 -1.145
 -0.940
 -0.730
 -0.500
 -0.295
 -0.115
  0.030
  0.170
  0.315
  0.455
  0.580
  0.665
  0.730
  0.780
  0.830
  0.880
  0.940
  0.975
  1.010
  1.045
  1.090
  1.135
  1.190
  1.220
  1.265
  1.290
  1.340
  1.395
  1.455
  1.480
  1.525
  1.555
  1.590
  1.650
  1.700
  1.745
  1.780
  1.820
  1.840
  1.880
  1.935
  1.945
  1.965
  1.985
  2.010
  2.025
  2.060
  2.060
  2.040
  2.040
  2.035
  2.035
  2.025
  1.995
  1.960
  1.915
  1.880
  1.830
  1.790
  1.735
  1.675
  1.600
  1.535
  1.480
  1.435
  1.355
  1.260
  1.195
  1.120
  1.050
  1.010
  0.935
  0.850
  0.790
  0.725
  0.665
  0.630
  0.575
  0.500
  0.465
  0.420
  0.375
  0.355
  0.315
  0.285
  0.240
  0.215
  0.200
  0.175
  0.150
  0.120
  0.110
  0.085
  0.075
  0.070
  0.055
  0.045
  0.025
  0.020
  0.010
  0.010
  0.015
  0.005
 -0.025
 -0.010
 -0.010
 -0.015
 -0.015
 -0.030
 -0.040
 -0.035
 -0.020
 -0.015
 -0.025
 -0.035
 -0.025
 -0.040
 -0.020
 -0.015
 -0.025
 -0.020
 -0.030
 -0.030
 -0.020
 -0.010
 -0.010
 -0.020
 -0.025
 -0.015
 -0.005
  0.005
  0.005
  0.005
 -0.020
 -0.005
  0.010
  0.005
  0.000
  0.000
 -0.015
 -0.015
 -0.015
 -0.005
 -0.005
 -0.010
 -0.025
 -0.025
 -0.015
 -0.010
 -0.020
 -0.040
 -0.035
 -0.040
 -0.050
 -0.040
 -0.060
 -0.060
 -0.070
 -0.075
 -0.075
 -0.065
 -0.070
 -0.080
 -0.090
 -0.095
 -0.085
 -0.080
 -0.100
 -0.105
 -0.120
 -0.125
 -0.110
 -0.110
 -0.115
 -0.120
 -0.135
 -0.155
 -0.135
 -0.130
 -0.135
 -0.150
 -0.150
 -0.155
 -0.145
 -0.135
 -0.145
 -0.155
 -0.155
 -0.170
 -0.160
 -0.150
 -0.160
 -0.165
 -0.165
 -0.170
 -0.170
 -0.170
 -0.180
 -0.160
 -0.185
 -0.185
 -0.175
 -0.170
 -0.175
 -0.185
 -0.190
 -0.195
 -0.185
 -0.180
 -0.180
 -0.180
 -0.190
 -0.190
 -0.175
 -0.165
 -0.170
 -0.185
 -0.180
 -0.195
 -0.175
 -0.150
 -0.155
 -0.145
 -0.145
 -0.140
 -0.125
 -0.095
 -0.065
  0.010
  0.225
  0.615
  0.785
  0.620
  0.370
  0.245
  0.205
  0.155
  0.085
  0.000
 -0.135
 -0.305
 -0.480
 -0.695
 -0.905
 -1.125
 -1.315
 -1.485
 -1.640
 -1.800
 -1.945
 -2.105
 -2.300
 -2.460
 -2.595
 -2.700
 -2.770
 -2.860
 -2.945
 -2.990
 -3.030
 -3.065
 -3.065
 -3.080
 -3.090
 -3.090
 -3.105
 -3.090
 -3.080
 -3.060
 -3.035
 -2.990
 -2.910
 -2.825
 -2.675
 -2.545
 -2.415
 -2.250
 -2.070
 -1.845
 -1.605
 -1.365
 -1.120
 -0.910
 -0.725
 -0.510
 -0.315
 -0.115
  0.050
  0.210
  0.355
  0.460
  0.560
  0.620
  0.670
  0.725
  0.740
  0.800
  0.840
  0.880
  0.915
  0.940
  0.970
  1.015
  1.050
  1.095
  1.135
  1.160
  1.185
  1.210
  1.260
  1.310
  1.345
  1.370
  1.395
  1.435
  1.485
  1.530
  1.550
  1.590
  1.620
  1.645
  1.680
  1.725
  1.750
  1.775
  1.805
  1.815
  1.845
  1.870
  1.880
  1.905
  1.905
  1.915
  1.925
  1.925
  1.925
  1.915
  1.885
  1.865
  1.870
  1.855
  1.815
  1.790
  1.745
  1.695
  1.675
  1.640
  1.580
  1.520
  1.460
  1.400
  1.360
  1.300
  1.235
  1.175
  1.100
  1.045
  0.995
  0.950
  0.880
  0.825
  0.760
  0.695
  0.650
  0.600
  0.540
  0.505
  0.445
  0.400
  0.370
  0.345
  0.300
  0.265
  0.225
  0.195
  0.175
  0.150
  0.135
  0.100
  0.085
  0.045
  0.050
  0.040
  0.025
  0.005
 -0.015
 -0.025
 -0.020
 -0.020
 -0.030
 -0.045
 -0.030
 -0.055
 -0.055
 -0.050
 -0.040
 -0.050
 -0.055
 -0.060
 -0.050
 -0.040
 -0.050
 -0.050
 -0.055
 -0.055
 -0.040
 -0.025
 -0.050
 -0.040
 -0.045
 -0.045
 -0.030
 -0.025
 -0.030
 -0.030
 -0.035
 -0.045
 -0.030
 -0.020
 -0.025
 -0.030
 -0.035
 -0.040
 -0.030
 -0.015
 -0.020
 -0.025
 -0.045
 -0.050
 -0.040
 -0.030
 -0.035
 -0.050
 -0.060
 -0.055
 -0.070
 -0.055
 -0.065
 -0.080
 -0.090
 -0.085
 -0.080
 -0.070
 -0.090
 -0.100
 -0.105
 -0.115
 -0.110
 -0.105
 -0.110
 -0.130
 -0.145
 -0.135
 -0.130
 -0.125
 -0.130
 -0.150
 -0.170
 -0.165
 -0.160
 -0.150
 -0.165
 -0.170
 -0.180
 -0.185
 -0.185
 -0.180
 -0.185
 -0.185
 -0.200
 -0.195
 -0.195
 -0.185
 -0.195
 -0.205
 -0.205
 -0.215
 -0.205
 -0.195
 -0.210
 -0.205
 -0.215
 -0.220
 -0.210
 -0.205
 -0.215
 -0.220
 -0.220
 -0.230
 -0.220
 -0.210
 -0.215
 -0.225
 -0.235
 -0.225
 -0.230
 -0.210
 -0.220
 -0.230
 -0.245
 -0.235
 -0.230
 -0.215
 -0.230
 -0.230
 -0.240
 -0.245
 -0.230
 -0.225
 -0.220
 -0.230
 -0.245
 -0.235
 -0.230
 -0.225
 -0.230
 -0.225
 -0.235
 -0.245
 -0.215
 -0.195
 -0.200
 -0.175
 -0.110
  0.090
  0.470
  0.825
  0.770
  0.470
  0.245
  0.165
  0.135
  0.085
  0.015
 -0.080
 -0.205
 -0.355
 -0.495
 -0.670
 -0.890
 -1.095
 -1.285
 -1.445
 -1.585
 -1.725
 -1.900
 -2.090
 -2.305
 -2.495
 -2.630
 -2.720
 -2.815
 -2.920
 -3.010
 -3.055
 -3.080
 -3.095
 -3.130
 -3.150
 -3.155
 -3.165
 -3.150
 -3.140
 -3.135
 -3.135
 -3.130
 -3.095
 -3.030
 -2.935
 -2.840
 -2.705
 -2.535
 -2.315
 -2.075
 -1.830
 -1.570
 -1.330
 -1.095
 -0.870
 -0.655
 -0.445
 -0.260
 -0.090
  0.065
  0.230
  0.360
  0.470
  0.555
  0.605
  0.635
  0.690
  0.725
  0.765
  0.805
  0.820
  0.845
  0.880
  0.925
  0.955
  0.985
  0.985
  1.015
  1.050
  1.085
  1.130
  1.155
  1.185
  1.215
  1.240
  1.300
  1.330
  1.365
  1.395
  1.415
  1.460
  1.495
  1.540
  1.575
  1.600
  1.625
  1.665
  1.700
  1.740
  1.760
  1.775
  1.800
  1.830
  1.855
  1.880
  1.890
  1.895
  1.895
  1.910
  1.920
  1.915
  1.930
  1.900
  1.890
  1.885
  1.875
  1.865
  1.835
  1.800
  1.770
  1.725
  1.700
  1.645
  1.585
  1.535
  1.470
  1.425
  1.370
  1.315
  1.235
  1.160
  1.085
  1.020
  0.965
  0.910
  0.835
  0.765
  0.715
  0.655
  0.615
  0.575
  0.515
  0.455
  0.405
  0.365
  0.340
  0.305
  0.265
  0.225
  0.185
  0.165
  0.160
  0.145
  0.125
  0.085
  0.060
  0.040
  0.040
  0.045
  0.030
  0.010
 -0.005
 -0.005
 -0.010
  0.005
 -0.010
 -0.025
 -0.030
 -0.030
 -0.030
 -0.020
 -0.035
 -0.035
 -0.040
 -0.040
 -0.035
 -0.020
 -0.030
 -0.030
 -0.050
 -0.040
 -0.030
 -0.020
 -0.020
 -0.030
 -0.040
 -0.045
 -0.020
 -0.025
 -0.020
 -0.035
 -0.045
 -0.050
 -0.030
 -0.025
 -0.035
 -0.040
 -0.050
 -0.055
 -0.050
 -0.045
 -0.045
 -0.070
 -0.065
 -0.060
 -0.065
 -0.055
 -0.070
 -0.080
 -0.090
 -0.090
 -0.095
 -0.085
 -0.095
 -0.110
 -0.125
 -0.115
 -0.120
 -0.110
 -0.115
 -0.140
 -0.150
 -0.150
 -0.130
 -0.135
 -0.145
 -0.140
 -0.160
 -0.170
 -0.150
 -0.160
 -0.170
 -0.190
 -0.185
 -0.195
 -0.185
 -0.185
 -0.185
 -0.190
 -0.205
 -0.210
 -0.205
 -0.190
 -0.195
 -0.200
 -0.230
 -0.230
 -0.215
 -0.210
 -0.215
 -0.230
 -0.225
 -0.235
 -0.225
 -0.230
 -0.225
 -0.230
 -0.240
 -0.235
 -0.235
 -0.230
 -0.235
 -0.235
 -0.250
 -0.250
 -0.235
 -0.240
 -0.235
 -0.245
 -0.250
 -0.250
 -0.250
 -0.235
 -0.235
 -0.250
 -0.255
 -0.255
 -0.240
 -0.240
 -0.240
 -0.255
 -0.255
 -0.255
 -0.245
 -0.245
 -0.245
 -0.260
 -0.260
 -0.260
 -0.250
 -0.245
 -0.245
 -0.250
 -0.260
 -0.255
 -0.245
 -0.240
 -0.225
 -0.245
 -0.255
 -0.245
 -0.230
 -0.220
 -0.230
 -0.240
 -0.235
 -0.200
 -0.125
  0.075
  0.440
  0.745
  0.715
  0.475
  0.275
  0.205
  0.155
  0.085
  0.010
 -0.065
 -0.170
 -0.290
 -0.455
 -0.625
 -0.820
 -1.030
 -1.210
 -1.370
 -1.530
 -1.680
 -1.845
 -1.975
 -2.125
 -2.305
 -2.480
 -2.620
 -2.740
 -2.820
 -2.895
 -2.970
 -3.025
 -3.080
 -3.120
 -3.135
 -3.145
 -3.155
 -3.165
 -3.180
 -3.195
 -3.175
 -3.165
 -3.150
 -3.135
 -3.115
 -3.080
 -3.005
 -2.900
 -2.805
 -2.680
 -2.550
 -2.385
 -2.185
 -1.985
 -1.750
 -1.525
 -1.290
 -1.065
 -0.860
 -0.670
 -0.485
 -0.315
 -0.180
 -0.020
  0.130
  0.280
  0.400
  0.495
  0.570
  0.620
  0.660
  0.695
  0.750
  0.770
  0.795
  0.815
  0.855
  0.890
  0.915
  0.945
  0.960
  0.980
  1.005
  1.030
  1.060
  1.075
  1.095
  1.105
  1.125
  1.175
  1.200
  1.230
  1.235
  1.260
  1.295
  1.330
  1.360
  1.380
  1.410
  1.425
  1.470
  1.500
  1.530
  1.560
  1.580
  1.600
  1.630
  1.660
  1.695
  1.720
  1.725
  1.755
  1.765
  1.785
  1.810
  1.820
  1.815
  1.800
  1.815
  1.825
  1.810
  1.800
  1.795
  1.760
  1.750
  1.730
  1.720
  1.675
  1.630
  1.590
  1.545
  1.510
  1.470
  1.415
  1.350
  1.285
  1.235
  1.175
  1.125
  1.060
  0.990
  0.915
  0.865
  0.795
  0.745
  0.690
  0.640
  0.585
  0.530
  0.490
  0.455
  0.410
  0.355
  0.310
  0.275
  0.250
  0.240
  0.205
  0.175
  0.145
  0.125
  0.115
  0.105
  0.070
  0.060
  0.040
  0.030
  0.025
  0.025
  0.015
  0.005
 -0.005
 -0.005
  0.015
  0.000
  0.000
 -0.010
 -0.020
 -0.030
 -0.030
 -0.020
 -0.015
 -0.015
 -0.030
 -0.015
 -0.010
 -0.010
 -0.010
 -0.015
 -0.025
 -0.015
  0.005
  0.000
  0.000
 -0.010
 -0.020
 -0.010
 -0.015
 -0.010
 -0.005
 -0.015
 -0.025
 -0.015
 -0.005
 -0.010
 -0.005
 -0.030
 -0.030
 -0.035
 -0.030
 -0.015
 -0.020
 -0.035
 -0.045
 -0.060
 -0.050
 -0.050
 -0.045
 -0.075
 -0.075
 -0.075
 -0.070
 -0.075
 -0.080
 -0.085
 -0.105
 -0.095
 -0.095
 -0.100
 -0.105
 -0.125
 -0.130
 -0.135
 -0.125
 -0.125
 -0.130
 -0.145
 -0.155
 -0.140
 -0.140
 -0.135
 -0.140
 -0.150
 -0.170
 -0.155
 -0.150
 -0.155
 -0.160
 -0.170
 -0.180
 -0.175
 -0.180
 -0.175
 -0.175
 -0.185
 -0.195
 -0.185
 -0.195
 -0.180
 -0.180
 -0.190
 -0.195
 -0.190
 -0.190
 -0.195
 -0.200
 -0.200
 -0.210
 -0.205
 -0.205
 -0.195
 -0.200
 -0.220
 -0.220
 -0.215
 -0.195
 -0.210
 -0.215
 -0.215
 -0.235
 -0.230
 -0.215
 -0.205
 -0.210
 -0.230
 -0.235
 -0.220
 -0.220
 -0.215
 -0.215
 -0.225
 -0.240
 -0.235
 -0.225
 -0.220
 -0.220
 -0.225
 -0.240
 -0.240
 -0.225
 -0.215
 -0.225
 -0.230
 -0.245
 -0.225
 -0.220
 -0.215
 -0.210
 -0.225
 -0.220
 -0.200
 -0.155
 -0.055
  0.185
  0.525
  0.735
  0.605
  0.360
  0.230
  0.190
  0.155
  0.100
  0.035
 -0.020
 -0.110
 -0.245
 -0.415
 -0.610
 -0.790
 -1.005
 -1.190
 -1.365
 -1.530
 -1.705
 -1.865
 -2.065
 -2.270
 -2.445
 -2.610
 -2.700
 -2.805
 -2.900
 -2.985
 -3.045
 -3.085
 -3.120
 -3.140
 -3.155
 -3.160
 -3.160
 -3.180
 -3.190
 -3.170
 -3.155
 -3.135
 -3.120
 -3.075
 -3.005
 -2.895
 -2.745
 -2.610
 -2.440
 -2.270
 -2.050
 -1.795
 -1.545
 -1.305
 -1.070
 -0.865
 -0.700
 -0.495
 -0.295
 -0.120
  0.040
  0.175
  0.300
  0.420
  0.510
  0.565
  0.610
  0.635
  0.675
  0.695
  0.750
  0.775
  0.810
  0.840
  0.870
  0.900
  0.950
  0.980
  1.000
  1.010
  1.030
  1.060
  1.100
  1.135
  1.165
  1.185
  1.200
  1.230
  1.260
  1.300
  1.315
  1.335
  1.360
  1.400
  1.435
  1.470
  1.500
  1.520
  1.545
  1.580
  1.625
  1.660
  1.680
  1.705
  1.715
  1.750
  1.780
  1.805
  1.820
  1.835
  1.835
  1.860
  1.875
  1.885
  1.880
  1.865
  1.855
  1.855
  1.850
  1.830
  1.800
  1.755
  1.725
  1.680
  1.650
  1.605
  1.555
  1.490
  1.435
  1.385
  1.330
  1.280
  1.215
  1.130
  1.060
  1.005
  0.955
  0.895
  0.825
  0.770
  0.705
  0.650
  0.615
  0.570
  0.510
  0.460
  0.410
  0.375
  0.345
  0.320
  0.265
  0.235
  0.205
  0.180
  0.160
  0.150
  0.130
  0.090
  0.070
  0.060
  0.060
  0.055
  0.045
  0.015
  0.010
  0.010
  0.015
  0.005
 -0.005
 -0.015
 -0.020
 -0.015
 -0.010
 -0.015
 -0.015
 -0.015
 -0.025
 -0.020
 -0.015
 -0.010
  0.005
 -0.015
 -0.035
 -0.030
 -0.015
 -0.010
 -0.005
 -0.015
 -0.020
 -0.020
 -0.010
  0.000
 -0.005
 -0.010
 -0.020
 -0.020
 -0.010
 -0.005
 -0.010
 -0.015
 -0.025
 -0.035
 -0.020
 -0.015
 -0.030
 -0.040
 -0.055
 -0.050
 -0.045
 -0.040
 -0.045
 -0.065
 -0.080
 -0.075
 -0.070
 -0.070
 -0.075
 -0.090
 -0.105
 -0.105
 -0.085
 -0.095
 -0.100
 -0.120
 -0.135
 -0.120
 -0.125
 -0.120
 -0.125
 -0.140
 -0.160
 -0.145
 -0.145
 -0.140
 -0.155
 -0.165
 -0.170
 -0.165
 -0.165
 -0.165
 -0.180
 -0.185
 -0.195
 -0.180
 -0.170
 -0.180
 -0.185
 -0.190
 -0.195
 -0.195
 -0.180
 -0.190
 -0.185
 -0.210
 -0.215
 -0.200
 -0.195
 -0.205
 -0.200
 -0.210
 -0.225
 -0.210
 -0.205
 -0.205
 -0.200
 -0.215
 -0.215
 -0.220
 -0.210
 -0.195
 -0.215
 -0.220
 -0.235
 -0.220
 -0.210
 -0.210
 -0.205
 -0.225
 -0.220
 -0.230
 -0.215
 -0.220
 -0.215
 -0.220
 -0.240
 -0.230
 -0.220
 -0.230
 -0.220
 -0.235
 -0.245
 -0.230
 -0.215
 -0.215
 -0.220
 -0.210
 -0.220
 -0.200
 -0.190
 -0.175
 -0.150
 -0.085
  0.170
  0.580
  0.835
  0.685
  0.410
  0.240
  0.180
  0.140
  0.085
  0.025
 -0.070
 -0.200
 -0.365
 -0.525
 -0.705
 -0.925
 -1.150
 -1.330
 -1.490
 -1.625
 -1.755
 -1.890
 -2.065
 -2.285
 -2.485
 -2.625
 -2.715
 -2.805
 -2.895
 -3.000
 -3.060
 -3.095
 -3.110
 -3.140
 -3.155
 -3.170
 -3.185
 -3.175
 -3.160
 -3.165
 -3.155
 -3.160
 -3.140
 -3.090
 -3.010
 -2.910
 -2.780
 -2.655
 -2.490
 -2.270
 -2.025
 -1.800
 -1.515
 -1.275
 -1.040
 -0.815
 -0.600
 -0.395
 -0.195
 -0.055
  0.110
  0.265
  0.410
  0.525
  0.605
  0.665
  0.705
  0.750
  0.800
  0.840
  0.875
  0.905
  0.925
  0.965
  1.000
  1.045
  1.070
  1.080
  1.100
  1.135
  1.185
  1.215
  1.240
  1.260
  1.285
  1.340
  1.370
  1.415
  1.450
  1.465
  1.495
  1.540
  1.590
  1.615
  1.655
  1.670
  1.685
  1.740
  1.785
  1.820
  1.840
  1.870
  1.890
  1.910
  1.950
  1.965
  1.980
  1.970
  1.975
  1.990
  2.005
  2.000
  1.995
  1.985
  1.955
  1.940
  1.935
  1.900
  1.865
  1.810
  1.770
  1.710
  1.670
  1.625
  1.550
  1.480
  1.405
  1.345
  1.290
  1.220
  1.145
  1.050
  0.960
  0.885
  0.820
  0.755
  0.680
  0.615
  0.545
  0.495
  0.465
  0.410
  0.345
  0.310
  0.265
  0.250
  0.230
  0.210
  0.175
  0.145
  0.110
  0.085
  0.075
  0.070
  0.055
  0.030
  0.010
  0.015
  0.000
  0.010
  0.000
 -0.020
 -0.035
 -0.020
 -0.015
 -0.025
 -0.030
 -0.045
 -0.045
 -0.035
 -0.035
 -0.040
 -0.035
 -0.050
 -0.055
 -0.045
 -0.020
 -0.025
 -0.030
 -0.040
 -0.045
 -0.030
 -0.010
 -0.030
 -0.030
 -0.035
 -0.040
 -0.030
 -0.025
 -0.020
 -0.030
 -0.035
 -0.045
 -0.040
 -0.040
 -0.040
 -0.055
 -0.055
 -0.070
 -0.075
 -0.065
 -0.065
 -0.065
 -0.080
 -0.090
 -0.090
 -0.090
 -0.095
 -0.095
 -0.110
 -0.125
 -0.115
 -0.120
 -0.125
 -0.125
 -0.140
 -0.155
 -0.140
 -0.145
 -0.145
 -0.140
 -0.150
 -0.170
 -0.160
 -0.165
 -0.160
 -0.160
 -0.170
 -0.185
 -0.185
 -0.170
 -0.165
 -0.165
 -0.190
 -0.200
 -0.190
 -0.180
 -0.185
 -0.180
 -0.200
 -0.205
 -0.200
 -0.195
 -0.185
 -0.190
 -0.210
 -0.210
 -0.205
 -0.185
 -0.205
 -0.190
 -0.195
 -0.210
 -0.205
 -0.195
 -0.190
 -0.200
 -0.210
 -0.215
 -0.210
 -0.195
 -0.195
 -0.205
 -0.210
 -0.220
 -0.210
 -0.205
 -0.195
 -0.195
 -0.215
 -0.215
 -0.215
 -0.205
 -0.200
 -0.210
 -0.215
 -0.220
 -0.215
 -0.205
 -0.210
 -0.220
 -0.220
 -0.240
 -0.215
 -0.215
 -0.210
 -0.210
 -0.210
 -0.225
 -0.210
 -0.195
 -0.160
 -0.130
 -0.020
  0.280
  0.695
  0.870
  0.680
  0.390
  0.230
  0.185
  0.125
  0.090
  0.000
 -0.105
 -0.250
 -0.420
 -0.605
 -0.775
 -0.980
 -1.190
 -1.375
 -1.540
 -1.670
 -1.815
 -1.945
 -2.115
 -2.320
 -2.510
 -2.660
 -2.740
 -2.825
 -2.910
 -3.005
 -3.075
 -3.115
 -3.130
 -3.140
 -3.175
 -3.195
 -3.210
 -3.200
 -3.190
 -3.190
 -3.180
 -3.195
 -3.175
 -3.140
 -3.085
 -3.015
 -2.925
 -2.810
 -2.665
 -2.490
 -2.265
 -2.040
 -1.775
 -1.530
 -1.295
 -1.050
 -0.810
 -0.615
 -0.415
 -0.235
 -0.085
  0.105
  0.275
  0.405
  0.520
  0.590
  0.650
  0.710
  0.770
  0.800
  0.835
  0.865
  0.900
  0.945
  0.980
  1.020
  1.050
  1.065
  1.090
  1.125
  1.165
  1.190
  1.240
  1.255
  1.290
  1.325
  1.370
  1.400
  1.425
  1.440
  1.475
  1.520
  1.560
  1.600
  1.625
  1.655
  1.680
  1.720
  1.765
  1.790
  1.815
  1.845
  1.860
  1.890
  1.920
  1.940
  1.960
  1.960
  1.970
  1.985
  1.990
  1.995
  1.980
  1.970
  1.940
  1.930
  1.900
  1.885
  1.845
  1.795
  1.745
  1.700
  1.665
  1.610
  1.530
  1.470
  1.400
  1.345
  1.290
  1.220
  1.150
  1.075
  1.000
  0.940
  0.890
  0.825
  0.765
  0.700
  0.630
  0.580
  0.550
  0.490
  0.450
  0.380
  0.345
  0.320
  0.290
  0.265
  0.220
  0.195
  0.165
  0.135
  0.120
  0.105
  0.080
  0.055
  0.045
  0.040
  0.030
  0.025
  0.015
  0.005
 -0.025
 -0.015
 -0.010
 -0.020
 -0.025
 -0.030
 -0.030
 -0.030
 -0.020
 -0.030
 -0.025
 -0.040
 -0.045
 -0.040
 -0.025
 -0.015
 -0.025
 -0.035
 -0.045
 -0.035
 -0.015
 -0.015
 -0.010
 -0.005
 -0.015
 -0.005
  0.015
  0.020
  0.015
  0.020
  0.015
  0.030
  0.030
  0.030
  0.025
  0.020
  0.015
  0.025
  0.020
  0.035
  0.030
  0.010
  0.015
 -0.005
 -0.010
 -0.005
 -0.035
 -0.045
 -0.070
 -0.070
 -0.075
 -0.090
 -0.105
 -0.120
 -0.125
 -0.125
 -0.125
 -0.120
 -0.120
 -0.135
 -0.145
 -0.135
 -0.120
 -0.145
 -0.145
 -0.165
 -0.180
 -0.180
 -0.170
 -0.170
 -0.175
 -0.180
 -0.185
 -0.180
 -0.175
 -0.175
 -0.175
 -0.190
 -0.200
 -0.195
 -0.190
 -0.185
 -0.185
 -0.200
 -0.210
 -0.200
 -0.195
 -0.200
 -0.200
 -0.220
 -0.220
 -0.215
 -0.210
 -0.205
 -0.220
 -0.230
 -0.235
 -0.225
 -0.205
 -0.210
 -0.215
 -0.235
 -0.245
 -0.225
 -0.210
 -0.195
 -0.210
 -0.225
 -0.235
 -0.230
 -0.215
 -0.215
 -0.215
 -0.240
 -0.230
 -0.225
 -0.205
 -0.210
 -0.210
 -0.220
 -0.220
 -0.220
 -0.200
 -0.210
 -0.205
 -0.225
 -0.230
 -0.220
 -0.205
 -0.205
 -0.190
 -0.190
 -0.170
 -0.120
  0.035
  0.390
  0.780
  0.800
  0.520
  0.300
  0.225
  0.205
  0.170
  0.115
  0.060
  0.005
 -0.085
 -0.230
 -0.430
 -0.650
 -0.925
 -1.170
 -1.405
 -1.680
 -1.920
 -2.125
 -2.290
 -2.425
 -2.530
 -2.615
 -2.695
 -2.785
 -2.885
 -2.975
 -3.020
 -3.055
 -3.060
 -3.125
 -3.145
 -3.160
 -3.165
 -3.165
 -3.165
 -3.190
 -3.190
 -3.165
 -3.125
 -3.070
 -3.000
 -2.925
 -2.825
 -2.695
 -2.550
 -2.405
 -2.230
 -2.025
 -1.790
 -1.540
 -1.305
 -1.085
 -0.880
 -0.675
 -0.460
 -0.280
 -0.095
  0.060
  0.185
  0.310
  0.435
  0.555
  0.655
  0.710
  0.750
  0.800
  0.840
  0.890
  0.930
  0.970
  1.010
  1.040
  1.080
  1.140
  1.175
  1.220
  1.270
  1.300
  1.335
  1.380
  1.440
  1.495
  1.530
  1.565
  1.600
  1.640
  1.695
  1.735
  1.770
  1.805
  1.835
  1.880
  1.925
  1.960
  1.995
  2.025
  2.025
  2.055
  2.080
  2.095
  2.100
  2.100
  2.095
  2.095
  2.095
  2.085
  2.065
  2.035
  1.995
  1.965
  1.930
  1.895
  1.850
  1.795
  1.725
  1.680
  1.630
  1.560
  1.485
  1.420
  1.345
  1.275
  1.225
  1.150
  1.080
  1.015
  0.935
  0.890
  0.840
  0.785
  0.725
  0.660
  0.605
  0.570
  0.530
  0.475
  0.445
  0.390
  0.345
  0.320
  0.295
  0.265
  0.240
  0.205
  0.170
  0.155
  0.150
  0.130
  0.105
  0.085
  0.060
  0.050
  0.060
  0.045
  0.030
  0.005
  0.000
  0.005
  0.015
  0.010
  0.010
 -0.005
 -0.020
 -0.010
 -0.005
 -0.015
 -0.020
 -0.030
 -0.040
 -0.010
 -0.010
 -0.015
 -0.020
 -0.015
 -0.020
 -0.020
 -0.010
  0.005
 -0.005
 -0.010
 -0.015
 -0.015
  0.000
  0.005
  0.000
 -0.015
 -0.010
 -0.005
  0.010
 -0.005
 -0.005
 -0.010
 -0.015
 -0.010
 -0.005
 -0.010
  0.000
 -0.025
 -0.020
 -0.020
 -0.010
 -0.015
 -0.020
 -0.040
 -0.045
 -0.035
 -0.030
 -0.030
 -0.050
 -0.060
 -0.075
 -0.050
 -0.060
 -0.065
 -0.060
 -0.075
 -0.100
 -0.080
 -0.080
 -0.085
 -0.100
 -0.105
 -0.110
 -0.110
 -0.105
 -0.095
 -0.110
 -0.120
 -0.130
 -0.125
 -0.110
 -0.120
 -0.120
 -0.130
 -0.130
 -0.120
 -0.095
 -0.100
 -0.100
 -0.105
 -0.105
 -0.095
 -0.085
 -0.100
 -0.100
 -0.100
 -0.110
 -0.115
 -0.105
 -0.125
 -0.125
 -0.165
 -0.170
 -0.165
 -0.175
 -0.180
 -0.185
 -0.210
 -0.235
 -0.230
 -0.220
 -0.215
 -0.240
 -0.240
 -0.230
 -0.230
 -0.190
 -0.195
 -0.195
 -0.220
 -0.220
 -0.210
 -0.205
 -0.205
 -0.205
 -0.205
 -0.210
 -0.195
 -0.185
 -0.175
 -0.180
 -0.180
 -0.160
 -0.090
  0.085
  0.440
  0.765
  0.770
  0.500
  0.325
  0.255
  0.230
  0.195
  0.155
  0.120
  0.095
  0.035
 -0.075
 -0.230
 -0.430
 -0.655
 -0.890
 -1.085
 -1.320
 -1.560
 -1.775
 -1.940
 -2.055
 -2.160
 -2.265
 -2.365
 -2.495
 -2.645
 -2.755
 -2.830
 -2.905
 -2.960
 -3.015
 -3.065
 -3.095
 -3.115
 -3.145
 -3.150
 -3.175
 -3.170
 -3.160
 -3.135
 -3.090
 -3.045
 -2.960
 -2.860
 -2.735
 -2.595
 -2.450
 -2.275
 -2.080
 -1.840
 -1.580
 -1.340
 -1.125
 -0.875
 -0.650
 -0.425
 -0.210
 -0.025
  0.115
  0.280
  0.390
  0.520
  0.650
  0.735
  0.805
  0.855
  0.890
  0.940
  0.995
  1.045
  1.105
  1.135
  1.180
  1.205
  1.265
  1.315
  1.365
  1.395
  1.440
  1.475
  1.540
  1.590
  1.630
  1.680
  1.725
  1.765
  1.820
  1.875
  1.920
  1.955
  1.975
  1.995
  2.045
  2.080
  2.100
  2.135
  2.145
  2.165
  2.180
  2.190
  2.195
  2.195
  2.170
  2.145
  2.150
  2.130
  2.105
  2.065
  2.010
  1.975
  1.930
  1.875
  1.820
  1.765
  1.695
  1.605
  1.545
  1.495
  1.420
  1.340
  1.250
  1.175
  1.110
  1.045
  0.980
  0.910
  0.830
  0.765
  0.710
  0.660
  0.605
  0.545
  0.480
  0.445
  0.410
  0.375
  0.335
  0.295
  0.255
  0.230
  0.205
  0.180
  0.155
  0.140
  0.105
  0.090
  0.075
  0.075
  0.060
  0.040
  0.025
  0.015
  0.015
  0.025
  0.005
  0.000
 -0.025
 -0.030
 -0.030
 -0.025
 -0.025
 -0.035
 -0.045
 -0.055
 -0.040
 -0.045
 -0.050
 -0.045
 -0.035
 -0.045
 -0.040
 -0.040
 -0.040
 -0.050
 -0.060
 -0.060
 -0.050
 -0.035
 -0.035
 -0.040
 -0.040
 -0.045
 -0.030
 -0.025
 -0.015
 -0.030
 -0.020
 -0.025
 -0.020
 -0.010
 -0.015
 -0.020
 -0.025
 -0.025
 -0.025
 -0.020
 -0.020
 -0.025
 -0.030
 -0.035
 -0.045
 -0.020
 -0.035
 -0.040
 -0.055
 -0.055
 -0.060
 -0.050
 -0.055
 -0.065
 -0.090
 -0.095
 -0.075
 -0.075
 -0.095
 -0.080
 -0.110
 -0.120
 -0.110
 -0.100
 -0.110
 -0.110
 -0.130
 -0.145
 -0.130
 -0.130
 -0.130
 -0.140
 -0.155
 -0.165
 -0.160
 -0.155
 -0.145
 -0.155
 -0.160
 -0.175
 -0.170
 -0.155
 -0.155
 -0.170
 -0.185
 -0.190
 -0.185
 -0.175
 -0.185
 -0.180
 -0.205
 -0.195
 -0.205
 -0.195
 -0.195
 -0.200
 -0.205
 -0.215
 -0.205
 -0.200
 -0.195
 -0.200
 -0.215
 -0.225
 -0.210
 -0.200
 -0.195
 -0.200
 -0.225
 -0.225
 -0.215
 -0.205
 -0.200
 -0.205
 -0.215
 -0.230
 -0.225
 -0.200
 -0.205
 -0.210
 -0.210
 -0.215
 -0.205
 -0.185
 -0.175
 -0.140
 -0.080
  0.130
  0.515
  0.825
  0.780
  0.505
  0.290
  0.200
  0.175
  0.135
  0.060
 -0.015
 -0.120
 -0.270
 -0.430
 -0.600
 -0.790
 -1.020
 -1.250
 -1.440
 -1.615
 -1.760
 -1.905
 -2.080
 -2.270
 -2.475
 -2.635
 -2.730
 -2.840
 -2.930
 -3.025
 -3.090
 -3.115
 -3.150
 -3.160
 -3.170
 -3.200
 -3.220
 -3.210
 -3.190
 -3.185
 -3.185
 -3.175
 -3.155
 -3.100
 -3.030
 -2.925
 -2.820
 -2.685
 -2.510
 -2.290
 -2.070
 -1.820
 -1.565
 -1.350
 -1.095
 -0.870
 -0.655
 -0.455
 -0.265
 -0.110
  0.075
  0.240
  0.385
  0.480
  0.565
  0.620
  0.675
  0.720
  0.775
  0.795
  0.830
  0.860
  0.885
  0.930
  0.960
  1.000
  1.015
  1.035
  1.055
  1.100
  1.130
  1.160
  1.200
  1.215
  1.235
  1.290
  1.315
  1.345
  1.380
  1.400
  1.435
  1.480
  1.520
  1.555
  1.575
  1.600
  1.620
  1.665
  1.705
  1.745
  1.755
  1.785
  1.810
  1.845
  1.880
  1.885
  1.900
  1.900
  1.915
  1.935
  1.955
  1.945
  1.950
  1.925
  1.910
  1.890
  1.900
  1.875
  1.835
  1.800
  1.745
  1.720
  1.690
  1.630
  1.585
  1.520
  1.465
  1.405
  1.345
  1.290
  1.220
  1.140
  1.080
  1.020
  0.960
  0.895
  0.840
  0.760
  0.705
  0.645
  0.615
  0.560
  0.505
  0.450
  0.400
  0.370
  0.355
  0.305
  0.265
  0.220
  0.195
  0.160
  0.170
  0.130
  0.110
  0.080
  0.075
  0.070
  0.050
  0.040
  0.020
  0.000
  0.000
  0.000
  0.000
 -0.010
 -0.010
 -0.025
 -0.025
 -0.025
 -0.015
 -0.010
 -0.015
 -0.030
 -0.030
 -0.025
 -0.010
 -0.020
 -0.025
 -0.040
 -0.025
 -0.020
 -0.015
 -0.015
 -0.020
 -0.025
 -0.025
 -0.020
 -0.020
 -0.010
 -0.015
 -0.015
 -0.040
 -0.020
 -0.010
 -0.010
 -0.010
 -0.030
 -0.035
 -0.035
 -0.020
 -0.025
 -0.020
 -0.035
 -0.045
 -0.040
 -0.040
 -0.055
 -0.055
 -0.070
 -0.080
 -0.075
 -0.070
 -0.070
 -0.085
 -0.100
 -0.110
 -0.100
 -0.090
 -0.105
 -0.105
 -0.125
 -0.120
 -0.115
 -0.125
 -0.130
 -0.135
 -0.145
 -0.145
 -0.145
 -0.145
 -0.140
 -0.165
 -0.155
 -0.165
 -0.180
 -0.160
 -0.165
 -0.175
 -0.180
 -0.180
 -0.175
 -0.175
 -0.175
 -0.180
 -0.195
 -0.200
 -0.200
 -0.185
 -0.185
 -0.185
 -0.205
 -0.210
 -0.205
 -0.190
 -0.195
 -0.200
 -0.210
 -0.215
 -0.205
 -0.190
 -0.205
 -0.205
 -0.220
 -0.205
 -0.215
 -0.195
 -0.210
 -0.205
 -0.235
 -0.215
 -0.215
 -0.205
 -0.195
 -0.210
 -0.215
 -0.230
 -0.215
 -0.195
 -0.220
 -0.215
 -0.215
 -0.225
 -0.215
 -0.205
 -0.215
 -0.210
 -0.225
 -0.220
 -0.220
 -0.210
 -0.205
 -0.215
 -0.215
 -0.215
 -0.210
 -0.195
 -0.185
 -0.175
 -0.165
 -0.095
  0.105
  0.490
  0.790
  0.740
  0.465
  0.285
  0.230
  0.205
  0.145
  0.065
 -0.030
 -0.160
 -0.300
 -0.435
 -0.625
 -0.830
 -1.035
 -1.240
 -1.380
 -1.530
 -1.670
 -1.835
 -2.025
 -2.235
 -2.435
 -2.560
 -2.670
 -2.755
 -2.855
 -2.955
 -3.020
 -3.055
 -3.090
 -3.120
 -3.155
 -3.185
 -3.180
 -3.170
 -3.175
 -3.180
 -3.175
 -3.165
 -3.150
 -3.100
 -3.045
 -2.955
 -2.855
 -2.740
 -2.565
 -2.385
 -2.180
 -1.975
 -1.745
 -1.505
 -1.230
 -1.000
 -0.790
 -0.590
 -0.405
 -0.225
 -0.065
  0.100
  0.255
  0.380
  0.470
  0.555
  0.620
  0.680
  0.725
  0.760
  0.790
  0.830
  0.860
  0.900
  0.930
  0.960
  0.985
  1.000
  1.045
  1.080
  1.110
  1.115
  1.135
  1.155
  1.195
  1.225
  1.250
  1.270
  1.295
  1.330
  1.360
  1.410
  1.435
  1.460
  1.490
  1.505
  1.550
  1.590
  1.625
  1.650
  1.675
  1.700
  1.740
  1.775
  1.795
  1.825
  1.840
  1.870
  1.885
  1.905
  1.900
  1.920
  1.900
  1.900
  1.920
  1.915
  1.905
  1.895
  1.870
  1.850
  1.840
  1.815
  1.790
  1.730
  1.700
  1.660
  1.615
  1.570
  1.520
  1.470
  1.410
  1.345
  1.295
  1.245
  1.195
  1.120
  1.060
  0.985
  0.955
  0.890
  0.830
  0.775
  0.715
  0.645
  0.605
  0.570
  0.515
  0.460
  0.410
  0.365
  0.330
  0.305
  0.270
  0.235
  0.190
  0.165
  0.145
  0.150
  0.115
  0.095
  0.070
  0.045
  0.060
  0.050
  0.040
  0.030
  0.015
  0.005
  0.010
  0.025
  0.020
  0.000
 -0.010
 -0.015
 -0.015
  0.000
  0.000
 -0.010
 -0.025
 -0.020
 -0.015
  0.005
  0.005
 -0.010
 -0.015
 -0.010
 -0.005
  0.005
 -0.005
  0.005
 -0.015
 -0.010
 -0.005
  0.000
  0.005
 -0.010
 -0.005
 -0.015
 -0.015
  0.000
 -0.010
 -0.010
 -0.020
 -0.030
 -0.030
 -0.020
 -0.025
 -0.035
 -0.035
 -0.055
 -0.060
 -0.040
 -0.055
 -0.055
 -0.065
 -0.070
 -0.065
 -0.065
 -0.080
 -0.075
 -0.090
 -0.110
 -0.095
 -0.085
 -0.100
 -0.115
 -0.120
 -0.135
 -0.130
 -0.115
 -0.130
 -0.135
 -0.150
 -0.150
 -0.150
 -0.135
 -0.150
 -0.155
 -0.160
 -0.170
 -0.165
 -0.165
 -0.165
 -0.175
 -0.190
 -0.185
 -0.190
 -0.185
 -0.180
 -0.185
 -0.205
 -0.190
 -0.200
 -0.180
 -0.185
 -0.185
 -0.195
 -0.200
 -0.205
 -0.195
 -0.195
 -0.195
 -0.215
 -0.220
 -0.210
 -0.200
 -0.210
 -0.205
 -0.215
 -0.215
 -0.200
 -0.185
 -0.195
 -0.210
 -0.210
 -0.225
 -0.225
 -0.200
 -0.200
 -0.210
 -0.230
 -0.230
 -0.210
 -0.215
 -0.205
 -0.200
 -0.220
 -0.220
 -0.200
 -0.205
 -0.205
 -0.215
 -0.220
 -0.220
 -0.205
 -0.215
 -0.210
 -0.225
 -0.230
 -0.220
 -0.220
 -0.205
 -0.210
 -0.205
 -0.200
 -0.210
 -0.200
 -0.185
 -0.155
 -0.130
 -0.020
  0.240
  0.605
  0.750
  0.595
  0.375
  0.245
  0.205
  0.175
  0.125
  0.060
 -0.015
 -0.120
 -0.255
 -0.410
 -0.570
 -0.755
 -0.975
 -1.180
 -1.365
 -1.520
 -1.665
 -1.815
 -1.940
 -2.115
 -2.325
 -2.480
 -2.590
 -2.695
 -2.785
 -2.890
 -2.970
 -3.035
 -3.050
 -3.100
 -3.120
 -3.145
 -3.160
 -3.160
 -3.160
 -3.155
 -3.160
 -3.180
 -3.165
 -3.150
 -3.115
 -3.095
 -3.045
 -2.995
 -2.905
 -2.780
 -2.635
 -2.490
 -2.305
 -2.120
 -1.875
 -1.625
 -1.365
 -1.135
 -0.925
 -0.735
 -0.525
 -0.315
 -0.125
  0.045
  0.205
  0.350
  0.485
  0.590
  0.675
  0.730
  0.775
  0.795
  0.840
  0.875
  0.920
  0.960
  0.980
  1.020
  1.055
  1.095
  1.140
  1.160
  1.190
  1.195
  1.220
  1.255
  1.275
  1.290
  1.315
  1.330
  1.360
  1.395
  1.430
  1.450
  1.495
  1.520
  1.535
  1.565
  1.605
  1.630
  1.645
  1.665
  1.695
  1.730
  1.780
  1.800
  1.835
  1.870
  1.890
  1.925
  1.955
  1.980
  1.980
  1.980
  2.000
  2.000
  2.005
  2.020
  1.990
  1.980
  1.970
  1.965
  1.955
  1.940
  1.895
  1.860
  1.830
  1.790
  1.750
  1.710
  1.655
  1.595
  1.540
  1.500
  1.435
  1.370
  1.290
  1.215
  1.155
  1.110
  1.040
  0.980
  0.915
  0.850
  0.785
  0.735
  0.700
  0.645
  0.590
  0.535
  0.480
  0.455
  0.410
  0.375
  0.325
  0.285
  0.250
  0.230
  0.200
  0.175
  0.150
  0.115
  0.085
  0.085
  0.070
  0.060
  0.050
  0.020
  0.010
  0.015
  0.025
  0.015
  0.005
 -0.020
 -0.015
 -0.010
 -0.010
 -0.015
 -0.035
 -0.025
 -0.035
 -0.025
 -0.005
 -0.020
 -0.025
 -0.030
 -0.035
 -0.030
 -0.020
 -0.010
 -0.015
 -0.025
 -0.035
 -0.020
 -0.015
 -0.020
 -0.020
 -0.035
 -0.030
 -0.030
 -0.015
  0.000
 -0.020
 -0.020
 -0.030
 -0.035
 -0.020
 -0.020
 -0.025
 -0.050
 -0.045
 -0.040
 -0.040
 -0.035
 -0.045
 -0.070
 -0.075
 -0.070
 -0.060
 -0.070
 -0.080
 -0.090
 -0.110
 -0.095
 -0.090
 -0.105
 -0.105
 -0.125
 -0.125
 -0.125
 -0.125
 -0.130
 -0.145
 -0.150
 -0.165
 -0.170
 -0.155
 -0.160
 -0.165
 -0.175
 -0.170
 -0.175
 -0.160
 -0.185
 -0.185
 -0.200
 -0.200
 -0.195
 -0.190
 -0.190
 -0.195
 -0.205
 -0.210
 -0.220
 -0.205
 -0.205
 -0.210
 -0.220
 -0.230
 -0.225
 -0.220
 -0.210
 -0.220
 -0.235
 -0.240
 -0.235
 -0.225
 -0.220
 -0.230
 -0.240
 -0.250
 -0.225
 -0.220
 -0.230
 -0.245
 -0.250
 -0.245
 -0.240
 -0.230
 -0.235
 -0.245
 -0.255
 -0.250
 -0.250
 -0.245
 -0.240
 -0.250
 -0.255
 -0.260
 -0.250
 -0.250
 -0.245
 -0.245
 -0.250
 -0.260
 -0.250
 -0.245
 -0.240
 -0.250
 -0.255
 -0.265
 -0.250
 -0.235
 -0.240
 -0.235
 -0.245
 -0.240
 -0.205
 -0.145
  0.000
  0.350
  0.710
  0.745
  0.490
  0.270
  0.145
  0.115
  0.050
 -0.025
 -0.130
 -0.235
 -0.390
 -0.545
 -0.735
 -0.980
 -1.195
 -1.375
 -1.535
 -1.680
 -1.825
 -2.000
 -2.160
 -2.375
 -2.555
 -2.695
 -2.800
 -2.895
 -2.975
 -3.025
 -3.105
 -3.150
 -3.175
 -3.190
 -3.205
 -3.205
 -3.220
 -3.225
 -3.225
 -3.235
 -3.230
 -3.200
 -3.185
 -3.155
 -3.105
 -3.025
 -2.905
 -2.745
 -2.585
 -2.385
 -2.155
 -1.910
 -1.630
 -1.360
 -1.115
 -0.890
 -0.690
 -0.495
 -0.285
 -0.105
  0.065
  0.235
  0.380
  0.500
  0.590
  0.655
  0.710
  0.755
  0.780
  0.820
  0.865
  0.905
  0.935
  0.960
  0.980
  1.010
  1.045
  1.080
  1.105
  1.125
  1.145
  1.170
  1.205
  1.240
  1.280
  1.295
  1.315
  1.335
  1.375
  1.415
  1.450
  1.470
  1.500
  1.540
  1.565
  1.600
  1.635
  1.645
  1.680
  1.700
  1.740
  1.775
  1.795
  1.810
  1.825
  1.840
  1.870
  1.895
  1.905
  1.915
  1.915
  1.910
  1.915
  1.925
  1.910
  1.900
  1.880
  1.845
  1.830
  1.805
  1.760
  1.720
  1.660
  1.610
  1.570
  1.540
  1.465
  1.405
  1.340
  1.285
  1.240
  1.180
  1.115
  1.040
  0.980
  0.905
  0.845
  0.790
  0.735
  0.675
  0.605
  0.560
  0.510
  0.465
  0.410
  0.355
  0.310
  0.265
  0.235
  0.195
  0.155
  0.120
  0.080
  0.040
  0.025
  0.000
 -0.010
 -0.035
 -0.060
 -0.085
 -0.075
 -0.075
 -0.075
 -0.080
 -0.085
 -0.100
 -0.095
 -0.085
 -0.100
 -0.100
 -0.115
 -0.105
 -0.100
 -0.100
 -0.100
 -0.105
 -0.115
 -0.115
 -0.120
 -0.100
 -0.095
 -0.105
 -0.105
 -0.100
 -0.080
 -0.085
 -0.080
 -0.095
 -0.100
 -0.110
 -0.100
 -0.085
 -0.095
 -0.105
 -0.105
 -0.115
 -0.095
 -0.095
 -0.100
 -0.105
 -0.125
 -0.140
 -0.130
 -0.130
 -0.140
 -0.145
 -0.150
 -0.160
 -0.150
 -0.165
 -0.160
 -0.175
 -0.190
 -0.190
 -0.190
 -0.195
 -0.190
 -0.210
 -0.220
 -0.220
 -0.215
 -0.210
 -0.220
 -0.220
 -0.240
 -0.245
 -0.240
 -0.225
 -0.225
 -0.245
 -0.240
 -0.255
 -0.245
 -0.230
 -0.240
 -0.255
 -0.270
 -0.265
 -0.255
 -0.250
 -0.250
 -0.260
 -0.260
 -0.260
 -0.270
 -0.250
 -0.255
 -0.255
 -0.265
 -0.265
 -0.265
 -0.245
 -0.265
 -0.270
 -0.265
 -0.265
 -0.260
 -0.255
 -0.260
 -0.265
 -0.270
 -0.265
 -0.265
 -0.250
 -0.250
 -0.250
 -0.265
 -0.275
 -0.260
 -0.250
 -0.255
 -0.255
 -0.275
 -0.265
 -0.255
 -0.260
 -0.270
 -0.255
 -0.265
 -0.265
 -0.250
 -0.250
 -0.260
 -0.270
 -0.270
 -0.275
 -0.255
 -0.255
 -0.265
 -0.255
