 -0.155
 -0.155
 -0.155
 -0.155
 -0.155
 -0.155
 -0.155
 -0.155
 -0.170
 -0.175
 -0.195
 -0.220
 -0.210
 -0.215
 -0.240
 -0.260
 -0.265
 -0.270
 -0.280
 -0.290
 -0.285
 -0.300
 -0.305
 -0.320
 -0.345
 -0.340
 -0.325
 -0.305
 -0.305
 -0.310
 -0.320
 -0.320
 -0.310
 -0.315
 -0.340
 -0.360
 -0.375
 -0.355
 -0.350
 -0.335
 -0.345
 -0.365
 -0.400
 -0.400
 -0.365
 -0.370
 -0.340
 -0.355
 -0.350
 -0.355
 -0.370
 -0.370
 -0.355
 -0.350
 -0.355
 -0.355
 -0.375
 -0.385
 -0.405
 -0.435
 -0.415
 -0.355
 -0.300
 -0.275
 -0.275
 -0.270
 -0.270
 -0.265
 -0.265
 -0.260
 -0.250
 -0.235
 -0.210
 -0.180
 -0.165
 -0.180
 -0.190
 -0.190
 -0.175
 -0.165
 -0.160
 -0.180
 -0.230
 -0.280
 -0.310
 -0.330
 -0.325
 -0.330
 -0.335
 -0.340
 -0.345
 -0.330
 -0.350
 -0.355
 -0.385
 -0.405
 -0.430
 -0.430
 -0.400
 -0.400
 -0.390
 -0.380
 -0.370
 -0.355
 -0.365
 -0.345
 -0.345
 -0.390
 -0.410
 -0.415
 -0.425
 -0.390
 -0.385
 -0.395
 -0.410
 -0.405
 -0.435
 -0.435
 -0.410
 -0.380
 -0.370
 -0.360
 -0.360
 -0.390
 -0.390
 -0.375
 -0.345
 -0.325
 -0.330
 -0.335
 -0.335
 -0.360
 -0.370
 -0.350
 -0.290
 -0.230
 -0.185
 -0.205
 -0.265
 -0.285
 -0.270
 -0.280
 -0.315
 -0.365
 -0.405
 -0.430
 -0.445
 -0.450
 -0.415
 -0.375
 -0.290
 -0.225
 -0.165
 -0.140
 -0.130
 -0.115
 -0.040
  0.175
  0.425
  0.565
  0.550
  0.440
  0.330
  0.225
  0.105
 -0.005
 -0.085
 -0.175
 -0.210
 -0.225
 -0.220
 -0.235
 -0.235
 -0.235
 -0.210
 -0.180
 -0.200
 -0.185
 -0.225
 -0.245
 -0.255
 -0.260
 -0.245
 -0.235
 -0.230
 -0.225
 -0.225
 -0.240
 -0.225
 -0.210
 -0.210
 -0.200
 -0.190
 -0.165
 -0.150
 -0.170
 -0.195
 -0.200
 -0.205
 -0.175
 -0.150
 -0.130
 -0.120
 -0.120
 -0.145
 -0.140
 -0.115
 -0.115
 -0.105
 -0.110
 -0.110
 -0.100
 -0.100
 -0.115
 -0.115
 -0.105
 -0.075
 -0.045
 -0.030
 -0.020
 -0.025
 -0.060
 -0.075
 -0.065
 -0.060
 -0.055
 -0.010
  0.010
  0.005
 -0.010
 -0.005
 -0.015
 -0.010
 -0.020
 -0.005
  0.010
 -0.010
 -0.010
  0.000
 -0.025
 -0.045
 -0.055
 -0.025
  0.000
  0.010
  0.000
 -0.035
 -0.045
 -0.075
 -0.130
 -0.135
 -0.110
 -0.105
 -0.095
 -0.130
 -0.175
 -0.200
 -0.220
 -0.245
 -0.240
 -0.225
 -0.230
 -0.235
 -0.245
 -0.265
 -0.290
 -0.310
 -0.305
 -0.320
 -0.310
 -0.295
 -0.275
 -0.290
 -0.320
 -0.350
 -0.350
 -0.355
 -0.340
 -0.345
 -0.320
 -0.340
 -0.375
 -0.375
 -0.375
 -0.345
 -0.340
 -0.340
 -0.365
 -0.380
 -0.405
 -0.415
 -0.410
 -0.410
 -0.435
 -0.435
 -0.415
 -0.400
 -0.385
 -0.400
 -0.420
 -0.450
 -0.455
 -0.465
 -0.460
 -0.450
 -0.425
 -0.415
 -0.400
 -0.395
 -0.410
 -0.425
 -0.450
 -0.455
 -0.440
 -0.425
 -0.415
 -0.400
 -0.430
 -0.430
 -0.430
 -0.420
 -0.420
 -0.420
 -0.395
 -0.385
 -0.345
 -0.320
 -0.310
 -0.310
 -0.315
 -0.325
 -0.345
 -0.340
 -0.315
 -0.280
 -0.305
 -0.330
 -0.385
 -0.395
 -0.385
 -0.360
 -0.355
 -0.370
 -0.375
 -0.395
 -0.390
 -0.390
 -0.405
 -0.415
 -0.435
 -0.420
 -0.440
 -0.470
 -0.505
 -0.530
 -0.505
 -0.480
 -0.490
 -0.490
 -0.510
 -0.520
 -0.510
 -0.500
 -0.505
 -0.515
 -0.530
 -0.520
 -0.510
 -0.515
 -0.505
 -0.505
 -0.525
 -0.550
 -0.555
 -0.555
 -0.535
 -0.555
 -0.550
 -0.550
 -0.555
 -0.550
 -0.540
 -0.530
 -0.545
 -0.525
 -0.515
 -0.485
 -0.475
 -0.450
 -0.455
 -0.465
 -0.470
 -0.460
 -0.465
 -0.470
 -0.470
 -0.475
 -0.460
 -0.430
 -0.425
 -0.420
 -0.425
 -0.450
 -0.445
 -0.430
 -0.405
 -0.390
 -0.375
 -0.380
 -0.400
 -0.425
 -0.450
 -0.460
 -0.485
 -0.520
 -0.555
 -0.585
 -0.610
 -0.590
 -0.560
 -0.530
 -0.480
 -0.450
 -0.415
 -0.385
 -0.385
 -0.390
 -0.330
 -0.245
 -0.085
  0.125
  0.275
  0.330
  0.315
  0.255
  0.160
  0.030
 -0.090
 -0.175
 -0.225
 -0.265
 -0.290
 -0.320
 -0.330
 -0.355
 -0.355
 -0.345
 -0.325
 -0.320
 -0.335
 -0.305
 -0.250
 -0.230
 -0.250
 -0.280
 -0.295
 -0.305
 -0.300
 -0.280
 -0.280
 -0.290
 -0.275
 -0.280
 -0.270
 -0.250
 -0.245
 -0.255
 -0.260
 -0.260
 -0.245
 -0.235
 -0.215
 -0.210
 -0.195
 -0.215
 -0.230
 -0.215
 -0.200
 -0.205
 -0.185
 -0.180
 -0.170
 -0.165
 -0.160
 -0.170
 -0.170
 -0.170
 -0.135
 -0.110
 -0.120
 -0.130
 -0.135
 -0.125
 -0.105
 -0.095
 -0.080
 -0.090
 -0.090
 -0.060
 -0.040
 -0.020
 -0.035
 -0.060
 -0.060
 -0.060
 -0.050
 -0.025
 -0.015
 -0.055
 -0.050
 -0.040
 -0.005
  0.040
  0.055
  0.060
  0.055
  0.040
  0.020
  0.010
  0.010
  0.010
 -0.005
 -0.020
 -0.020
 -0.015
 -0.015
 -0.030
 -0.065
 -0.090
 -0.085
 -0.060
 -0.055
 -0.075
 -0.100
 -0.125
 -0.135
 -0.140
 -0.175
 -0.170
 -0.200
 -0.180
 -0.190
 -0.205
 -0.230
 -0.240
 -0.265
 -0.285
 -0.280
 -0.290
 -0.290
 -0.295
 -0.285
 -0.275
 -0.265
 -0.275
 -0.250
 -0.255
 -0.275
 -0.305
 -0.305
 -0.270
 -0.255
 -0.245
 -0.260
 -0.290
 -0.305
 -0.310
 -0.315
 -0.315
 -0.315
 -0.315
 -0.335
 -0.355
 -0.345
 -0.355
 -0.360
 -0.375
 -0.380
 -0.360
 -0.350
 -0.360
 -0.375
 -0.395
 -0.385
 -0.390
 -0.380
 -0.375
 -0.375
 -0.390
 -0.390
 -0.395
 -0.385
 -0.385
 -0.385
 -0.395
 -0.400
 -0.385
 -0.385
 -0.385
 -0.410
 -0.410
 -0.380
 -0.370
 -0.360
 -0.365
 -0.380
 -0.385
 -0.375
 -0.370
 -0.345
 -0.350
 -0.355
 -0.340
 -0.315
 -0.305
 -0.295
 -0.290
 -0.290
 -0.280
 -0.255
 -0.250
 -0.240
 -0.225
 -0.230
 -0.245
 -0.235
 -0.225
 -0.230
 -0.245
 -0.275
 -0.295
 -0.275
 -0.265
 -0.270
 -0.300
 -0.345
 -0.365
 -0.375
 -0.390
 -0.395
 -0.410
 -0.395
 -0.390
 -0.375
 -0.380
 -0.375
 -0.395
 -0.420
 -0.435
 -0.415
 -0.400
 -0.400
 -0.410
 -0.430
 -0.445
 -0.425
 -0.450
 -0.450
 -0.435
 -0.425
 -0.445
 -0.445
 -0.430
 -0.440
 -0.455
 -0.475
 -0.495
 -0.490
 -0.495
 -0.490
 -0.470
 -0.450
 -0.460
 -0.430
 -0.395
 -0.370
 -0.365
 -0.370
 -0.380
 -0.370
 -0.360
 -0.350
 -0.350
 -0.355
 -0.350
 -0.340
 -0.340
 -0.345
 -0.360
 -0.360
 -0.335
 -0.320
 -0.305
 -0.295
 -0.295
 -0.310
 -0.320
 -0.330
 -0.320
 -0.320
 -0.335
 -0.340
 -0.350
 -0.355
 -0.375
 -0.405
 -0.455
 -0.520
 -0.550
 -0.525
 -0.485
 -0.450
 -0.415
 -0.360
 -0.305
 -0.270
 -0.215
 -0.205
 -0.195
 -0.195
 -0.145
 -0.050
  0.145
  0.335
  0.480
  0.545
  0.495
  0.445
  0.375
  0.275
  0.135
  0.000
 -0.080
 -0.145
 -0.175
 -0.185
 -0.215
 -0.225
 -0.250
 -0.260
 -0.255
 -0.250
 -0.235
 -0.235
 -0.235
 -0.235
 -0.225
 -0.215
 -0.225
 -0.240
 -0.240
 -0.235
 -0.215
 -0.210
 -0.195
 -0.190
 -0.210
 -0.195
 -0.210
 -0.205
 -0.205
 -0.210
 -0.240
 -0.230
 -0.220
 -0.210
 -0.205
 -0.200
 -0.190
 -0.175
 -0.170
 -0.175
 -0.195
 -0.205
 -0.225
 -0.210
 -0.170
 -0.140
 -0.125
 -0.135
 -0.135
 -0.145
 -0.125
 -0.130
 -0.135
 -0.125
 -0.105
 -0.115
 -0.105
 -0.100
 -0.100
 -0.110
 -0.110
 -0.095
 -0.090
 -0.055
 -0.040
 -0.045
 -0.045
 -0.055
 -0.035
 -0.020
 -0.035
 -0.045
 -0.065
 -0.050
 -0.040
 -0.050
 -0.060
 -0.055
 -0.030
 -0.005
  0.015
  0.005
  0.020
  0.000
  0.005
  0.005
  0.025
  0.035
  0.040
  0.040
  0.030
  0.045
  0.045
  0.035
  0.030
  0.005
 -0.015
  0.000
  0.005
  0.015
  0.025
  0.010
  0.015
  0.020
  0.010
 -0.005
 -0.025
 -0.035
 -0.060
 -0.045
 -0.030
 -0.010
 -0.050
 -0.040
 -0.065
 -0.100
 -0.115
 -0.145
 -0.150
 -0.175
 -0.180
 -0.165
 -0.140
 -0.120
 -0.110
 -0.120
 -0.140
 -0.155
 -0.160
 -0.185
 -0.190
 -0.210
 -0.220
 -0.215
 -0.205
 -0.215
 -0.225
 -0.235
 -0.255
 -0.250
 -0.235
 -0.240
 -0.235
 -0.235
 -0.240
 -0.230
 -0.240
 -0.240
 -0.265
 -0.270
 -0.270
 -0.270
 -0.265
 -0.265
 -0.260
 -0.275
 -0.285
 -0.285
 -0.280
 -0.295
 -0.295
 -0.320
 -0.345
 -0.330
 -0.325
 -0.305
 -0.300
 -0.315
 -0.335
 -0.330
 -0.305
 -0.310
 -0.340
 -0.355
 -0.355
 -0.330
 -0.315
 -0.325
 -0.305
 -0.305
 -0.320
 -0.325
 -0.310
 -0.310
 -0.325
 -0.350
 -0.365
 -0.360
 -0.340
 -0.305
 -0.300
 -0.295
 -0.300
 -0.305
 -0.305
 -0.310
 -0.320
 -0.325
 -0.340
 -0.320
 -0.290
 -0.285
 -0.295
 -0.290
 -0.305
 -0.305
 -0.290
 -0.300
 -0.300
 -0.290
 -0.270
 -0.245
 -0.230
 -0.200
 -0.200
 -0.205
 -0.220
 -0.195
 -0.185
 -0.160
 -0.145
 -0.140
 -0.135
 -0.135
 -0.135
 -0.140
 -0.160
 -0.190
 -0.200
 -0.200
 -0.200
 -0.200
 -0.195
 -0.215
 -0.240
 -0.240
 -0.230
 -0.245
 -0.265
 -0.300
 -0.320
 -0.315
 -0.295
 -0.270
 -0.265
 -0.265
 -0.275
 -0.270
 -0.275
 -0.295
 -0.305
 -0.335
 -0.345
 -0.325
 -0.310
 -0.295
 -0.300
 -0.335
 -0.335
 -0.350
 -0.350
 -0.370
 -0.375
 -0.370
 -0.375
 -0.355
 -0.340
 -0.380
 -0.405
 -0.405
 -0.415
 -0.380
 -0.355
 -0.345
 -0.330
 -0.300
 -0.290
 -0.285
 -0.290
 -0.295
 -0.295
 -0.305
 -0.275
 -0.245
 -0.225
 -0.205
 -0.225
 -0.230
 -0.230
 -0.240
 -0.245
 -0.240
 -0.255
 -0.260
 -0.250
 -0.235
 -0.215
 -0.210
 -0.225
 -0.240
 -0.245
 -0.240
 -0.225
 -0.230
 -0.275
 -0.280
 -0.275
 -0.265
 -0.300
 -0.350
 -0.405
 -0.455
 -0.450
 -0.415
 -0.350
 -0.305
 -0.270
 -0.240
 -0.195
 -0.170
 -0.155
 -0.150
 -0.130
 -0.100
 -0.010
  0.140
  0.335
  0.490
  0.565
  0.545
  0.485
  0.425
  0.330
  0.210
  0.100
  0.005
 -0.045
 -0.095
 -0.145
 -0.160
 -0.190
 -0.210
 -0.225
 -0.215
 -0.175
 -0.165
 -0.160
 -0.175
 -0.160
 -0.155
 -0.155
 -0.180
 -0.190
 -0.205
 -0.185
 -0.160
 -0.145
 -0.140
 -0.155
 -0.160
 -0.165
 -0.175
 -0.170
 -0.175
 -0.160
 -0.160
 -0.140
 -0.135
 -0.125
 -0.120
 -0.140
 -0.160
 -0.160
 -0.160
 -0.135
 -0.145
 -0.155
 -0.160
 -0.150
 -0.120
 -0.100
 -0.080
 -0.090
 -0.100
 -0.095
 -0.085
 -0.080
 -0.080
 -0.085
 -0.105
 -0.095
 -0.085
 -0.075
 -0.085
 -0.100
 -0.110
 -0.095
 -0.075
 -0.060
 -0.055
 -0.070
 -0.070
 -0.065
 -0.030
 -0.025
 -0.005
 -0.005
 -0.010
 -0.030
 -0.005
  0.010
  0.010
  0.005
 -0.005
 -0.005
  0.015
  0.030
  0.020
  0.000
 -0.005
 -0.020
 -0.010
 -0.015
 -0.020
 -0.020
 -0.015
 -0.015
 -0.010
  0.000
 -0.020
 -0.055
 -0.065
 -0.050
 -0.040
 -0.055
 -0.045
 -0.060
 -0.080
 -0.080
 -0.080
 -0.080
 -0.105
 -0.145
 -0.170
 -0.165
 -0.190
 -0.195
 -0.190
 -0.220
 -0.225
 -0.230
 -0.230
 -0.235
 -0.230
 -0.245
 -0.265
 -0.265
 -0.260
 -0.265
 -0.285
 -0.305
 -0.315
 -0.305
 -0.300
 -0.275
 -0.280
 -0.295
 -0.335
 -0.310
 -0.305
 -0.300
 -0.305
 -0.320
 -0.320
 -0.330
 -0.335
 -0.310
 -0.315
 -0.325
 -0.350
 -0.360
 -0.350
 -0.345
 -0.350
 -0.360
 -0.360
 -0.350
 -0.360
 -0.365
 -0.390
 -0.395
 -0.400
 -0.395
 -0.395
 -0.380
 -0.400
 -0.400
 -0.415
 -0.415
 -0.405
 -0.385
 -0.400
 -0.405
 -0.405
 -0.395
 -0.410
 -0.395
 -0.385
 -0.390
 -0.405
 -0.400
 -0.405
 -0.405
 -0.415
 -0.420
 -0.420
 -0.410
 -0.400
 -0.385
 -0.395
 -0.410
 -0.420
 -0.390
 -0.350
 -0.330
 -0.310
 -0.305
 -0.300
 -0.290
 -0.290
 -0.265
 -0.245
 -0.245
 -0.255
 -0.250
 -0.255
 -0.245
 -0.270
 -0.295
 -0.315
 -0.310
 -0.315
 -0.310
 -0.325
 -0.350
 -0.385
 -0.390
 -0.410
 -0.410
 -0.415
 -0.420
 -0.430
 -0.435
 -0.445
 -0.415
 -0.410
 -0.420
 -0.450
 -0.475
 -0.470
 -0.440
 -0.420
 -0.430
 -0.460
 -0.465
 -0.460
 -0.460
 -0.465
 -0.490
 -0.505
 -0.495
 -0.470
 -0.470
 -0.485
 -0.500
 -0.515
 -0.505
 -0.515
 -0.510
 -0.515
 -0.505
 -0.500
 -0.480
 -0.455
 -0.410
 -0.390
 -0.370
 -0.375
 -0.390
 -0.410
 -0.390
 -0.380
 -0.370
 -0.380
 -0.370
 -0.365
 -0.355
 -0.375
 -0.375
 -0.385
 -0.360
 -0.335
 -0.305
 -0.285
 -0.295
 -0.325
 -0.335
 -0.305
 -0.300
 -0.325
 -0.350
 -0.380
 -0.370
 -0.380
 -0.440
 -0.485
 -0.540
 -0.590
 -0.595
 -0.550
 -0.500
 -0.475
 -0.440
 -0.425
 -0.420
 -0.375
 -0.325
 -0.280
 -0.205
 -0.080
  0.100
  0.315
  0.465
  0.505
  0.445
  0.360
  0.305
  0.225
  0.145
  0.050
 -0.055
 -0.150
 -0.195
 -0.210
 -0.225
 -0.240
 -0.245
 -0.230
 -0.205
 -0.205
 -0.205
 -0.220
 -0.210
 -0.235
 -0.245
 -0.230
 -0.200
 -0.190
 -0.175
 -0.205
 -0.215
 -0.235
 -0.235
 -0.230
 -0.205
 -0.210
 -0.195
 -0.200
 -0.180
 -0.175
 -0.170
 -0.185
 -0.160
 -0.130
 -0.115
 -0.100
 -0.110
 -0.120
 -0.150
 -0.145
 -0.130
 -0.140
 -0.140
 -0.130
 -0.120
 -0.120
 -0.110
 -0.120
 -0.135
 -0.140
 -0.125
 -0.110
 -0.095
 -0.080
 -0.080
 -0.065
 -0.040
 -0.015
 -0.005
 -0.005
 -0.025
 -0.010
 -0.005
 -0.015
 -0.015
 -0.005
  0.000
 -0.010
 -0.015
  0.015
  0.050
  0.035
  0.035
  0.020
  0.030
  0.030
 -0.005
 -0.030
 -0.050
 -0.030
  0.010
  0.055
  0.070
  0.075
  0.085
  0.080
  0.045
 -0.005
 -0.040
 -0.045
 -0.035
 -0.030
 -0.045
 -0.050
 -0.075
 -0.080
 -0.100
 -0.120
 -0.105
 -0.100
 -0.075
 -0.045
 -0.055
 -0.105
 -0.190
 -0.250
 -0.255
 -0.215
 -0.210
 -0.250
 -0.265
 -0.235
 -0.175
 -0.185
 -0.215
 -0.270
 -0.295
 -0.290
 -0.255
 -0.245
 -0.250
 -0.255
 -0.260
 -0.315
 -0.340
 -0.325
 -0.310
 -0.270
 -0.265
 -0.225
 -0.215
 -0.250
 -0.290
 -0.310
 -0.310
 -0.345
 -0.355
 -0.360
 -0.345
 -0.385
 -0.370
 -0.335
 -0.295
 -0.280
 -0.325
 -0.370
 -0.365
 -0.365
 -0.360
 -0.365
 -0.395
 -0.450
 -0.455
 -0.455
 -0.395
 -0.365
 -0.360
 -0.390
 -0.410
 -0.440
 -0.435
 -0.435
 -0.405
 -0.400
 -0.360
 -0.325
 -0.315
 -0.320
 -0.315
 -0.305
 -0.325
 -0.370
 -0.375
 -0.345
 -0.315
 -0.340
 -0.345
 -0.340
 -0.315
 -0.285
 -0.295
 -0.340
 -0.325
 -0.315
 -0.340
 -0.355
 -0.340
 -0.295
 -0.230
 -0.220
 -0.240
 -0.265
 -0.285
 -0.310
 -0.295
 -0.295
 -0.275
 -0.270
 -0.285
 -0.300
 -0.315
 -0.355
 -0.385
 -0.405
 -0.445
 -0.465
 -0.440
 -0.395
 -0.365
 -0.370
 -0.390
 -0.440
 -0.445
 -0.445
 -0.410
 -0.375
 -0.355
 -0.370
 -0.405
 -0.455
 -0.485
 -0.490
 -0.470
 -0.440
 -0.420
 -0.460
 -0.500
 -0.535
 -0.500
 -0.465
 -0.455
 -0.425
 -0.405
 -0.395
 -0.415
 -0.410
 -0.465
 -0.475
 -0.455
 -0.415
 -0.430
 -0.460
 -0.410
 -0.350
 -0.290
 -0.240
 -0.235
 -0.285
 -0.370
 -0.425
 -0.410
 -0.370
 -0.365
 -0.375
 -0.395
 -0.380
 -0.365
 -0.350
 -0.360
 -0.355
 -0.355
 -0.395
 -0.480
 -0.565
 -0.595
 -0.605
 -0.590
 -0.560
 -0.500
 -0.425
 -0.365
 -0.325
 -0.300
 -0.255
 -0.185
 -0.060
  0.090
  0.265
  0.415
  0.475
  0.465
  0.405
  0.285
  0.150
  0.025
 -0.075
 -0.150
 -0.210
 -0.240
 -0.275
 -0.280
 -0.280
 -0.290
 -0.300
 -0.265
 -0.250
 -0.210
 -0.195
 -0.205
 -0.240
 -0.285
 -0.300
 -0.275
 -0.250
 -0.235
 -0.285
 -0.330
 -0.330
 -0.285
 -0.225
 -0.180
 -0.175
 -0.225
 -0.265
 -0.285
 -0.265
 -0.225
 -0.230
 -0.225
 -0.210
 -0.190
 -0.210
 -0.220
 -0.245
 -0.265
 -0.270
 -0.235
 -0.185
 -0.155
 -0.155
 -0.200
 -0.210
 -0.220
 -0.205
 -0.165
 -0.140
 -0.110
 -0.125
 -0.160
 -0.180
 -0.180
 -0.160
 -0.125
 -0.100
 -0.075
 -0.075
 -0.085
 -0.105
 -0.125
 -0.140
 -0.115
 -0.105
 -0.075
 -0.045
 -0.020
 -0.045
 -0.060
 -0.085
 -0.075
 -0.065
 -0.050
 -0.045
 -0.025
 -0.020
 -0.015
 -0.030
 -0.085
 -0.140
 -0.145
 -0.120
 -0.105
 -0.095
 -0.100
 -0.125
 -0.125
 -0.140
 -0.150
 -0.185
 -0.185
 -0.190
 -0.195
 -0.190
 -0.205
 -0.220
 -0.255
 -0.260
 -0.235
 -0.235
 -0.245
 -0.265
 -0.290
 -0.295
 -0.310
 -0.305
 -0.300
 -0.310
 -0.345
 -0.360
 -0.355
 -0.350
 -0.360
 -0.355
 -0.350
 -0.365
 -0.370
 -0.390
 -0.400
 -0.400
 -0.390
 -0.385
 -0.355
 -0.355
 -0.355
 -0.370
 -0.405
 -0.455
 -0.475
 -0.480
 -0.445
 -0.415
 -0.420
 -0.435
 -0.450
 -0.455
 -0.450
 -0.460
 -0.465
 -0.470
 -0.465
 -0.480
 -0.480
 -0.470
 -0.490
 -0.500
 -0.490
 -0.465
 -0.445
 -0.445
 -0.435
 -0.450
 -0.465
 -0.490
 -0.490
 -0.490
 -0.485
 -0.485
 -0.485
 -0.495
 -0.470
 -0.480
 -0.495
 -0.470
 -0.470
 -0.440
 -0.435
 -0.425
 -0.450
 -0.455
 -0.450
 -0.450
 -0.420
 -0.425
 -0.410
 -0.405
 -0.380
 -0.360
 -0.330
 -0.325
 -0.340
 -0.370
 -0.375
 -0.360
 -0.360
 -0.355
 -0.365
 -0.380
 -0.385
 -0.410
 -0.410
 -0.425
 -0.455
 -0.475
 -0.470
 -0.450
 -0.445
 -0.450
 -0.470
 -0.490
 -0.480
 -0.480
 -0.485
 -0.495
 -0.510
 -0.530
 -0.540
 -0.525
 -0.520
 -0.525
 -0.525
 -0.535
 -0.540
 -0.525
 -0.525
 -0.535
 -0.540
 -0.560
 -0.575
 -0.550
 -0.540
 -0.545
 -0.550
 -0.550
 -0.535
 -0.515
 -0.510
 -0.485
 -0.480
 -0.470
 -0.435
 -0.425
 -0.410
 -0.405
 -0.415
 -0.420
 -0.410
 -0.395
 -0.385
 -0.375
 -0.380
 -0.385
 -0.385
 -0.370
 -0.335
 -0.335
 -0.335
 -0.340
 -0.345
 -0.340
 -0.330
 -0.325
 -0.325
 -0.355
 -0.375
 -0.365
 -0.375
 -0.400
 -0.455
 -0.505
 -0.520
 -0.485
 -0.435
 -0.400
 -0.355
 -0.310
 -0.275
 -0.245
 -0.210
 -0.175
 -0.125
 -0.025
  0.125
  0.300
  0.435
  0.485
  0.425
  0.370
  0.275
  0.170
  0.070
 -0.035
 -0.135
 -0.230
 -0.260
 -0.265
 -0.255
 -0.250
 -0.260
 -0.285
 -0.280
 -0.280
 -0.280
 -0.295
 -0.275
 -0.270
 -0.255
 -0.245
 -0.230
 -0.230
 -0.245
 -0.255
 -0.265
 -0.245
 -0.225
 -0.220
 -0.235
 -0.225
 -0.210
 -0.215
 -0.190
 -0.180
 -0.180
 -0.175
 -0.180
 -0.170
 -0.160
 -0.170
 -0.170
 -0.185
 -0.175
 -0.160
 -0.150
 -0.145
 -0.140
 -0.165
 -0.155
 -0.135
 -0.105
 -0.110
 -0.115
 -0.115
 -0.100
 -0.085
 -0.065
 -0.065
 -0.075
 -0.085
 -0.075
 -0.045
 -0.010
 -0.030
 -0.015
 -0.025
 -0.020
 -0.015
  0.000
  0.000
 -0.005
 -0.020
 -0.025
 -0.025
  0.000
  0.005
 -0.015
 -0.030
  0.005
  0.005
  0.030
  0.030
  0.030
  0.010
  0.015
  0.020
  0.010
  0.005
  0.000
 -0.020
 -0.020
 -0.010
  0.000
 -0.025
 -0.035
 -0.065
 -0.085
 -0.085
 -0.085
 -0.080
 -0.115
 -0.125
 -0.135
 -0.140
 -0.125
 -0.145
 -0.155
 -0.175
 -0.200
 -0.200
 -0.200
 -0.205
 -0.210
 -0.230
 -0.240
 -0.235
 -0.245
 -0.250
 -0.260
 -0.285
 -0.275
 -0.255
 -0.245
 -0.255
 -0.275
 -0.310
 -0.300
 -0.290
 -0.270
 -0.280
 -0.295
 -0.315
 -0.325
 -0.330
 -0.330
 -0.335
 -0.355
 -0.365
 -0.355
 -0.345
 -0.340
 -0.350
 -0.375
 -0.400
 -0.410
 -0.400
 -0.395
 -0.390
 -0.410
 -0.420
 -0.425
 -0.405
 -0.410
 -0.410
 -0.425
 -0.440
 -0.430
 -0.415
 -0.405
 -0.430
 -0.450
 -0.470
 -0.460
 -0.430
 -0.410
 -0.410
 -0.420
 -0.445
 -0.465
 -0.450
 -0.425
 -0.430
 -0.415
 -0.430
 -0.415
 -0.400
 -0.395
 -0.410
 -0.415
 -0.420
 -0.385
 -0.350
 -0.335
 -0.335
 -0.340
 -0.350
 -0.345
 -0.325
 -0.305
 -0.295
 -0.295
 -0.295
 -0.305
 -0.280
 -0.275
 -0.300
 -0.315
 -0.340
 -0.340
 -0.335
 -0.350
 -0.360
 -0.385
 -0.405
 -0.415
 -0.435
 -0.435
 -0.430
 -0.435
 -0.430
 -0.420
 -0.385
 -0.390
 -0.405
 -0.460
 -0.470
 -0.475
 -0.475
 -0.465
 -0.445
 -0.455
 -0.440
 -0.460
 -0.475
 -0.480
 -0.490
 -0.500
 -0.500
 -0.480
 -0.465
 -0.450
 -0.470
 -0.515
 -0.545
 -0.540
 -0.515
 -0.465
 -0.425
 -0.395
 -0.390
 -0.390
 -0.395
 -0.385
 -0.390
 -0.385
 -0.370
 -0.340
 -0.310
 -0.315
 -0.350
 -0.365
 -0.375
 -0.370
 -0.355
 -0.335
 -0.310
 -0.310
 -0.300
 -0.295
 -0.305
 -0.300
 -0.315
 -0.345
 -0.375
 -0.375
 -0.380
 -0.385
 -0.445
 -0.490
 -0.525
 -0.515
 -0.480
 -0.465
 -0.440
 -0.420
 -0.370
 -0.335
 -0.310
 -0.270
 -0.245
 -0.155
  0.000
  0.220
  0.375
  0.425
  0.385
  0.325
  0.210
  0.090
 -0.035
 -0.095
 -0.140
 -0.185
 -0.230
 -0.235
 -0.235
 -0.230
 -0.250
 -0.240
 -0.265
 -0.250
 -0.240
 -0.210
 -0.210
 -0.230
 -0.250
 -0.245
 -0.260
 -0.230
 -0.205
 -0.210
 -0.230
 -0.220
 -0.180
 -0.150
 -0.155
 -0.165
 -0.175
 -0.165
 -0.150
 -0.140
 -0.145
 -0.150
 -0.170
 -0.175
 -0.160
 -0.145
 -0.130
 -0.115
 -0.125
 -0.130
 -0.120
 -0.110
 -0.110
 -0.115
 -0.100
 -0.090
 -0.065
 -0.065
 -0.065
 -0.055
 -0.050
 -0.065
 -0.040
 -0.015
  0.020
  0.005
  0.010
  0.015
  0.010
  0.000
  0.030
  0.055
  0.070
  0.080
  0.090
  0.110
  0.095
  0.085
  0.065
  0.060
  0.065
  0.095
  0.105
  0.105
  0.080
  0.075
  0.075
  0.095
  0.105
  0.085
  0.075
  0.080
  0.085
  0.100
  0.075
  0.065
  0.045
  0.045
  0.030
  0.030
  0.000
 -0.030
 -0.050
 -0.075
 -0.080
 -0.080
 -0.105
 -0.125
 -0.145
 -0.130
 -0.140
 -0.140
 -0.140
 -0.145
 -0.155
 -0.180
 -0.205
 -0.190
 -0.190
 -0.190
 -0.205
 -0.200
 -0.190
 -0.175
 -0.180
 -0.200
 -0.240
 -0.250
 -0.255
 -0.245
 -0.230
 -0.225
 -0.230
 -0.235
 -0.235
 -0.235
 -0.245
 -0.265
 -0.280
 -0.275
 -0.280
 -0.285
 -0.295
 -0.300
 -0.280
 -0.285
 -0.290
 -0.295
 -0.300
 -0.345
 -0.335
 -0.325
 -0.310
 -0.325
 -0.345
 -0.350
 -0.355
 -0.340
 -0.295
 -0.270
 -0.265
 -0.305
 -0.310
 -0.335
 -0.325
 -0.295
 -0.295
 -0.315
 -0.325
 -0.325
 -0.320
 -0.300
 -0.305
 -0.310
 -0.315
 -0.280
 -0.220
 -0.200
 -0.195
 -0.195
 -0.205
 -0.195
 -0.185
 -0.145
 -0.145
 -0.155
 -0.165
 -0.180
 -0.170
 -0.185
 -0.185
 -0.230
 -0.275
 -0.270
 -0.265
 -0.245
 -0.260
 -0.260
 -0.260
 -0.295
 -0.315
 -0.330
 -0.335
 -0.340
 -0.315
 -0.320
 -0.305
 -0.295
 -0.295
 -0.320
 -0.345
 -0.350
 -0.315
 -0.280
 -0.305
 -0.320
 -0.360
 -0.395
 -0.410
 -0.420
 -0.410
 -0.400
 -0.385
 -0.370
 -0.380
 -0.420
 -0.440
 -0.465
 -0.485
 -0.475
 -0.450
 -0.410
 -0.400
 -0.390
 -0.380
 -0.375
 -0.380
 -0.365
 -0.350
 -0.350
 -0.350
 -0.375
 -0.385
 -0.370
 -0.355
 -0.335
 -0.310
 -0.295
 -0.275
 -0.280
 -0.295
 -0.310
 -0.310
 -0.310
 -0.300
 -0.290
 -0.300
 -0.305
 -0.325
 -0.340
 -0.370
 -0.400
 -0.440
 -0.485
 -0.470
 -0.435
 -0.400
 -0.355
 -0.350
 -0.335
 -0.305
 -0.260
 -0.235
 -0.200
 -0.170
 -0.105
  0.015
  0.220
  0.415
  0.535
  0.535
  0.470
  0.390
  0.275
  0.130
  0.000
 -0.110
 -0.155
 -0.185
 -0.205
 -0.220
 -0.220
 -0.240
 -0.265
 -0.265
 -0.265
 -0.230
 -0.235
 -0.240
 -0.265
 -0.260
 -0.260
 -0.215
 -0.200
 -0.195
 -0.225
 -0.215
 -0.230
 -0.245
 -0.225
 -0.240
 -0.240
 -0.255
 -0.245
 -0.230
 -0.195
 -0.190
 -0.190
 -0.200
 -0.200
 -0.190
 -0.185
 -0.195
 -0.210
 -0.205
 -0.180
 -0.175
 -0.160
 -0.160
 -0.165
 -0.145
 -0.140
 -0.105
 -0.095
 -0.095
 -0.120
 -0.120
 -0.125
 -0.125
 -0.100
 -0.120
 -0.110
 -0.090
 -0.075
 -0.045
 -0.020
 -0.015
 -0.005
 -0.010
 -0.020
 -0.010
 -0.010
 -0.010
 -0.025
 -0.015
 -0.015
  0.010
  0.025
  0.040
  0.035
  0.035
  0.030
  0.055
  0.065
  0.085
  0.065
  0.035
  0.020
 -0.010
 -0.025
 -0.045
 -0.045
 -0.050
 -0.060
 -0.055
 -0.050
 -0.070
 -0.080
 -0.105
 -0.110
 -0.070
 -0.045
 -0.075
 -0.095
 -0.115
 -0.120
 -0.130
 -0.135
 -0.160
 -0.175
 -0.180
 -0.190
 -0.210
 -0.220
 -0.240
 -0.245
 -0.255
 -0.240
 -0.225
 -0.230
 -0.245
 -0.285
 -0.295
 -0.305
 -0.280
 -0.270
 -0.260
 -0.250
 -0.265
 -0.280
 -0.290
 -0.275
 -0.285
 -0.290
 -0.300
 -0.315
 -0.345
 -0.310
 -0.325
 -0.345
 -0.345
 -0.360
 -0.370
 -0.350
 -0.350
 -0.355
 -0.360
 -0.355
 -0.350
 -0.335
 -0.350
 -0.360
 -0.385
 -0.380
 -0.355
 -0.345
 -0.360
 -0.360
 -0.370
 -0.385
 -0.375
 -0.340
 -0.360
 -0.355
 -0.355
 -0.350
 -0.325
 -0.335
 -0.330
 -0.355
 -0.355
 -0.390
 -0.400
 -0.410
 -0.400
 -0.405
 -0.390
 -0.405
 -0.410
 -0.420
 -0.420
 -0.405
 -0.390
 -0.390
 -0.375
 -0.370
 -0.355
 -0.350
 -0.350
 -0.350
 -0.340
 -0.340
 -0.330
 -0.295
 -0.295
 -0.270
 -0.255
 -0.230
 -0.250
 -0.260
 -0.260
 -0.260
 -0.240
 -0.240
 -0.250
 -0.280
 -0.310
 -0.355
 -0.385
 -0.380
 -0.390
 -0.400
 -0.410
 -0.440
 -0.425
 -0.430
 -0.450
 -0.450
 -0.435
 -0.445
 -0.440
 -0.405
 -0.400
 -0.430
 -0.440
 -0.475
 -0.480
 -0.470
 -0.495
 -0.525
 -0.530
 -0.515
 -0.510
 -0.490
 -0.485
 -0.515
 -0.535
 -0.525
 -0.520
 -0.475
 -0.495
 -0.510
 -0.535
 -0.545
 -0.535
 -0.490
 -0.460
 -0.425
 -0.410
 -0.410
 -0.415
 -0.415
 -0.415
 -0.400
 -0.410
 -0.405
 -0.405
 -0.395
 -0.395
 -0.375
 -0.370
 -0.350
 -0.340
 -0.375
 -0.400
 -0.405
 -0.390
 -0.375
 -0.360
 -0.330
 -0.365
 -0.385
 -0.425
 -0.450
 -0.465
 -0.495
 -0.540
 -0.550
 -0.550
 -0.545
 -0.515
 -0.485
 -0.465
 -0.445
 -0.420
 -0.380
 -0.365
 -0.325
 -0.295
 -0.210
 -0.030
  0.175
  0.350
  0.420
  0.380
  0.335
  0.240
  0.105
 -0.030
 -0.125
 -0.210
 -0.265
 -0.305
 -0.315
 -0.290
 -0.280
 -0.275
 -0.285
 -0.310
 -0.325
 -0.310
 -0.300
 -0.310
 -0.310
 -0.310
 -0.295
 -0.295
 -0.280
 -0.280
 -0.280
 -0.290
 -0.290
 -0.270
 -0.260
 -0.270
 -0.285
 -0.305
 -0.295
 -0.280
 -0.215
 -0.205
 -0.225
 -0.240
 -0.245
 -0.230
 -0.205
 -0.215
 -0.225
 -0.220
 -0.180
 -0.155
 -0.130
 -0.130
 -0.155
 -0.160
 -0.175
 -0.155
 -0.130
 -0.115
 -0.100
 -0.095
 -0.110
 -0.110
 -0.110
 -0.110
 -0.120
 -0.110
 -0.070
 -0.070
 -0.060
 -0.065
 -0.070
 -0.065
 -0.045
 -0.010
  0.025
  0.025
  0.015
  0.010
 -0.015
 -0.005
 -0.005
 -0.010
  0.025
  0.025
  0.010
  0.010
  0.015
  0.005
 -0.015
 -0.015
 -0.025
 -0.030
 -0.025
 -0.030
 -0.035
 -0.045
 -0.055
 -0.045
 -0.045
 -0.080
 -0.120
 -0.145
 -0.155
 -0.155
 -0.150
 -0.160
 -0.145
 -0.140
 -0.165
 -0.165
 -0.165
 -0.175
 -0.180
 -0.235
 -0.245
 -0.255
 -0.260
 -0.255
 -0.275
 -0.280
 -0.285
 -0.300
 -0.280
 -0.295
 -0.305
 -0.325
 -0.325
 -0.320
 -0.320
 -0.315
 -0.320
 -0.300
 -0.285
 -0.315
 -0.325
 -0.330
 -0.340
 -0.370
 -0.385
 -0.360
 -0.365
 -0.360
 -0.345
 -0.360
 -0.365
 -0.380
 -0.395
 -0.395
 -0.395
 -0.425
 -0.435
 -0.425
 -0.405
 -0.435
 -0.470
 -0.470
 -0.460
 -0.455
 -0.430
 -0.425
 -0.430
 -0.440
 -0.455
 -0.455
 -0.460
 -0.485
 -0.505
 -0.480
 -0.480
 -0.445
 -0.455
 -0.445
 -0.455
 -0.460
 -0.475
 -0.465
 -0.455
 -0.445
 -0.435
 -0.430
 -0.415
 -0.425
 -0.425
 -0.435
 -0.435
 -0.430
 -0.410
 -0.365
 -0.335
 -0.335
 -0.360
 -0.360
 -0.360
 -0.340
 -0.335
 -0.345
 -0.350
 -0.350
 -0.345
 -0.325
 -0.315
 -0.320
 -0.325
 -0.325
 -0.350
 -0.345
 -0.360
 -0.390
 -0.400
 -0.410
 -0.420
 -0.410
 -0.415
 -0.455
 -0.465
 -0.470
 -0.485
 -0.465
 -0.445
 -0.455
 -0.470
 -0.470
 -0.465
 -0.455
 -0.460
 -0.470
 -0.500
 -0.550
 -0.550
 -0.540
 -0.530
 -0.520
 -0.515
 -0.530
 -0.535
 -0.540
 -0.535
 -0.550
 -0.550
 -0.555
 -0.555
 -0.550
 -0.540
 -0.540
 -0.550
 -0.570
 -0.580
 -0.575
 -0.565
 -0.575
 -0.580
 -0.580
 -0.565
 -0.530
 -0.495
 -0.495
 -0.500
 -0.515
 -0.515
 -0.470
 -0.440
 -0.420
 -0.435
 -0.440
 -0.450
 -0.445
 -0.455
 -0.465
 -0.485
 -0.490
 -0.470
 -0.440
 -0.425
 -0.410
 -0.425
 -0.430
 -0.435
 -0.440
 -0.445
 -0.430
 -0.440
 -0.470
 -0.495
 -0.510
 -0.535
 -0.590
 -0.615
 -0.620
 -0.585
 -0.545
 -0.510
 -0.485
 -0.420
 -0.370
 -0.360
 -0.355
 -0.330
 -0.325
 -0.300
 -0.210
 -0.065
  0.120
  0.315
  0.410
  0.425
  0.375
  0.310
  0.215
  0.075
 -0.065
 -0.190
 -0.270
 -0.310
 -0.320
 -0.325
 -0.335
 -0.365
 -0.380
 -0.400
 -0.375
 -0.345
 -0.335
 -0.315
 -0.335
 -0.330
 -0.320
 -0.325
 -0.340
 -0.375
 -0.375
 -0.375
 -0.345
 -0.315
 -0.310
 -0.330
 -0.350
 -0.390
 -0.395
 -0.370
 -0.325
 -0.305
 -0.290
 -0.285
 -0.295
 -0.295
 -0.285
 -0.265
 -0.270
 -0.285
 -0.270
 -0.255
 -0.255
 -0.270
 -0.275
 -0.275
 -0.255
 -0.250
 -0.255
 -0.260
 -0.250
 -0.245
 -0.235
 -0.215
 -0.215
 -0.215
 -0.215
 -0.185
 -0.160
 -0.135
 -0.120
 -0.105
 -0.145
 -0.150
 -0.145
 -0.135
 -0.115
 -0.115
 -0.120
 -0.110
 -0.095
 -0.100
 -0.095
 -0.110
 -0.130
 -0.145
 -0.125
 -0.095
 -0.075
 -0.060
 -0.050
 -0.050
 -0.060
 -0.050
 -0.065
 -0.075
 -0.085
 -0.090
 -0.085
 -0.085
 -0.090
 -0.105
 -0.115
 -0.130
 -0.135
 -0.140
 -0.170
 -0.185
 -0.165
 -0.145
 -0.150
 -0.170
 -0.210
 -0.215
 -0.245
 -0.265
 -0.245
 -0.230
 -0.230
 -0.255
 -0.265
 -0.300
 -0.305
 -0.315
 -0.310
 -0.330
 -0.355
 -0.360
 -0.335
 -0.300
 -0.290
 -0.305
 -0.320
 -0.335
 -0.345
 -0.340
 -0.355
 -0.365
 -0.350
 -0.360
 -0.350
 -0.350
 -0.360
 -0.375
 -0.380
 -0.395
 -0.370
 -0.365
 -0.325
 -0.325
 -0.335
 -0.330
 -0.335
 -0.345
 -0.380
 -0.375
 -0.385
 -0.395
 -0.375
 -0.370
 -0.370
 -0.375
 -0.390
 -0.420
 -0.420
 -0.425
 -0.400
 -0.410
 -0.415
 -0.425
 -0.425
 -0.415
 -0.400
 -0.410
 -0.445
 -0.465
 -0.465
 -0.455
 -0.425
 -0.415
 -0.400
 -0.415
 -0.415
 -0.420
 -0.415
 -0.420
 -0.425
 -0.415
 -0.410
 -0.400
 -0.405
 -0.405
 -0.425
 -0.440
 -0.425
 -0.430
 -0.395
 -0.400
 -0.410
 -0.385
 -0.370
 -0.360
 -0.330
 -0.330
 -0.340
 -0.335
 -0.290
 -0.250
 -0.245
 -0.255
 -0.265
 -0.275
 -0.270
 -0.280
 -0.290
 -0.290
 -0.295
 -0.315
 -0.305
 -0.295
 -0.315
 -0.335
 -0.370
 -0.410
 -0.425
 -0.420
 -0.415
 -0.410
 -0.415
 -0.410
 -0.395
 -0.390
 -0.410
 -0.430
 -0.445
 -0.460
 -0.450
 -0.435
 -0.425
 -0.425
 -0.450
 -0.460
 -0.450
 -0.455
 -0.460
 -0.485
 -0.500
 -0.495
 -0.470
 -0.480
 -0.475
 -0.495
 -0.495
 -0.495
 -0.490
 -0.495
 -0.515
 -0.535
 -0.530
 -0.525
 -0.500
 -0.470
 -0.440
 -0.410
 -0.390
 -0.370
 -0.355
 -0.375
 -0.370
 -0.375
 -0.360
 -0.350
 -0.340
 -0.330
 -0.340
 -0.350
 -0.365
 -0.370
 -0.355
 -0.340
 -0.330
 -0.315
 -0.325
 -0.330
 -0.305
 -0.290
 -0.290
 -0.290
 -0.305
 -0.310
 -0.310
 -0.330
 -0.365
 -0.420
 -0.460
 -0.500
 -0.520
 -0.505
 -0.460
 -0.410
 -0.380
 -0.325
 -0.270
 -0.250
 -0.235
 -0.220
 -0.210
 -0.185
 -0.095
  0.045
  0.245
  0.440
  0.555
  0.570
  0.530
  0.460
  0.365
  0.250
  0.090
 -0.040
 -0.125
 -0.165
 -0.195
 -0.225
 -0.230
 -0.245
 -0.240
 -0.220
 -0.195
 -0.180
 -0.205
 -0.235
 -0.240
 -0.250
 -0.260
 -0.270
 -0.265
 -0.245
 -0.215
 -0.215
 -0.185
 -0.190
 -0.195
 -0.205
 -0.205
 -0.185
 -0.180
 -0.195
 -0.190
 -0.195
 -0.205
 -0.190
 -0.195
 -0.170
 -0.170
 -0.145
 -0.140
 -0.115
 -0.115
 -0.130
 -0.150
 -0.150
 -0.165
 -0.140
 -0.140
 -0.120
 -0.110
 -0.090
 -0.085
 -0.090
 -0.105
 -0.125
 -0.135
 -0.140
 -0.140
 -0.115
 -0.105
 -0.100
 -0.090
 -0.070
 -0.050
 -0.045
 -0.010
 -0.025
 -0.025
 -0.015
  0.005
  0.005
  0.030
  0.030
  0.015
 -0.005
 -0.015
 -0.005
  0.010
  0.035
  0.065
  0.085
  0.080
  0.060
  0.045
  0.035
  0.035
  0.045
  0.065
  0.070
  0.080
  0.085
  0.055
  0.045
  0.045
  0.040
  0.035
  0.010
  0.010
  0.020
  0.030
  0.030
  0.020
 -0.020
 -0.055
 -0.085
 -0.075
 -0.080
 -0.075
 -0.080
 -0.080
 -0.105
 -0.120
 -0.125
 -0.140
 -0.165
 -0.185
 -0.205
 -0.195
 -0.190
 -0.205
 -0.200
 -0.200
 -0.215
 -0.230
 -0.215
 -0.225
 -0.235
 -0.245
 -0.270
 -0.260
 -0.265
 -0.260
 -0.270
 -0.275
 -0.285
 -0.270
 -0.260
 -0.250
 -0.265
 -0.280
 -0.285
 -0.300
 -0.315
 -0.320
 -0.320
 -0.330
 -0.315
 -0.285
 -0.280
 -0.280
 -0.315
 -0.335
 -0.345
 -0.330
 -0.340
 -0.350
 -0.355
 -0.375
 -0.390
 -0.385
 -0.390
 -0.385
 -0.380
 -0.365
 -0.390
 -0.390
 -0.385
 -0.380
 -0.380
 -0.395
 -0.390
 -0.385
 -0.355
 -0.355
 -0.365
 -0.390
 -0.405
 -0.400
 -0.370
 -0.345
 -0.325
 -0.330
 -0.350
 -0.350
 -0.345
 -0.330
 -0.310
 -0.310
 -0.300
 -0.275
 -0.255
 -0.230
 -0.230
 -0.230
 -0.250
 -0.260
 -0.250
 -0.235
 -0.220
 -0.235
 -0.250
 -0.285
 -0.305
 -0.330
 -0.340
 -0.350
 -0.375
 -0.380
 -0.370
 -0.380
 -0.395
 -0.420
 -0.435
 -0.435
 -0.425
 -0.420
 -0.415
 -0.425
 -0.410
 -0.420
 -0.430
 -0.445
 -0.465
 -0.470
 -0.470
 -0.460
 -0.450
 -0.460
 -0.480
 -0.475
 -0.495
 -0.495
 -0.510
 -0.495
 -0.500
 -0.505
 -0.505
 -0.505
 -0.475
 -0.460
 -0.465
 -0.455
 -0.445
 -0.430
 -0.410
 -0.410
 -0.410
 -0.430
 -0.420
 -0.405
 -0.390
 -0.360
 -0.350
 -0.365
 -0.370
 -0.360
 -0.355
 -0.350
 -0.370
 -0.375
 -0.365
 -0.360
 -0.355
 -0.355
 -0.360
 -0.380
 -0.390
 -0.405
 -0.415
 -0.440
 -0.495
 -0.515
 -0.535
 -0.505
 -0.490
 -0.460
 -0.440
 -0.435
 -0.425
 -0.395
 -0.340
 -0.275
 -0.230
 -0.195
 -0.110
  0.065
  0.305
  0.420
  0.420
  0.350
  0.230
  0.110
 -0.015
 -0.100
 -0.165
 -0.210
 -0.240
 -0.245
 -0.230
 -0.235
 -0.260
 -0.275
 -0.290
 -0.285
 -0.280
 -0.270
 -0.265
 -0.265
 -0.270
 -0.265
 -0.250
 -0.260
 -0.265
 -0.265
 -0.275
 -0.260
 -0.235
 -0.220
 -0.205
 -0.215
 -0.215
 -0.230
 -0.200
 -0.200
 -0.205
 -0.195
 -0.210
 -0.190
 -0.170
 -0.170
 -0.185
 -0.195
 -0.200
 -0.180
 -0.150
 -0.125
 -0.120
 -0.120
 -0.100
 -0.090
 -0.085
 -0.090
 -0.090
 -0.090
 -0.095
 -0.075
 -0.070
 -0.065
 -0.060
 -0.060
 -0.055
 -0.045
 -0.020
 -0.010
  0.005
 -0.010
 -0.010
  0.000
  0.030
  0.045
  0.040
  0.020
  0.025
  0.035
  0.040
  0.075
  0.060
  0.065
  0.045
  0.035
  0.040
  0.060
  0.050
  0.065
  0.050
  0.055
  0.060
  0.055
  0.060
  0.035
  0.015
  0.025
  0.045
  0.035
  0.035
  0.030
  0.010
 -0.005
 -0.020
 -0.025
 -0.040
 -0.040
 -0.060
 -0.060
 -0.070
 -0.095
 -0.100
 -0.120
 -0.155
 -0.145
 -0.135
 -0.125
 -0.140
 -0.150
 -0.160
 -0.190
 -0.175
 -0.175
 -0.180
 -0.185
 -0.200
 -0.205
 -0.225
 -0.215
 -0.220
 -0.240
 -0.260
 -0.270
 -0.245
 -0.235
 -0.240
 -0.235
 -0.255
 -0.235
 -0.240
 -0.255
 -0.265
 -0.295
 -0.305
 -0.285
 -0.255
 -0.270
 -0.275
 -0.300
 -0.315
 -0.330
 -0.345
 -0.350
 -0.340
 -0.340
 -0.335
 -0.325
 -0.315
 -0.315
 -0.335
 -0.350
 -0.355
 -0.350
 -0.340
 -0.350
 -0.350
 -0.365
 -0.375
 -0.380
 -0.360
 -0.365
 -0.365
 -0.375
 -0.385
 -0.365
 -0.345
 -0.340
 -0.360
 -0.365
 -0.380
 -0.370
 -0.380
 -0.360
 -0.350
 -0.365
 -0.385
 -0.390
 -0.390
 -0.395
 -0.380
 -0.370
 -0.365
 -0.345
 -0.310
 -0.300
 -0.290
 -0.285
 -0.285
 -0.270
 -0.250
 -0.245
 -0.235
 -0.250
 -0.260
 -0.250
 -0.240
 -0.245
 -0.245
 -0.275
 -0.265
 -0.270
 -0.285
 -0.300
 -0.325
 -0.365
 -0.390
 -0.385
 -0.360
 -0.370
 -0.385
 -0.415
 -0.420
 -0.420
 -0.405
 -0.415
 -0.430
 -0.430
 -0.455
 -0.455
 -0.455
 -0.430
 -0.425
 -0.435
 -0.455
 -0.475
 -0.470
 -0.480
 -0.480
 -0.480
 -0.490
 -0.480
 -0.455
 -0.450
 -0.470
 -0.505
 -0.520
 -0.510
 -0.485
 -0.445
 -0.440
 -0.440
 -0.445
 -0.415
 -0.405
 -0.395
 -0.395
 -0.375
 -0.380
 -0.385
 -0.385
 -0.380
 -0.385
 -0.380
 -0.385
 -0.375
 -0.345
 -0.320
 -0.325
 -0.350
 -0.365
 -0.360
 -0.360
 -0.340
 -0.360
 -0.360
 -0.395
 -0.410
 -0.435
 -0.460
 -0.515
 -0.545
 -0.505
 -0.465
 -0.405
 -0.390
 -0.350
 -0.305
 -0.265
 -0.240
 -0.220
 -0.180
 -0.115
  0.030
  0.210
  0.365
  0.430
  0.405
  0.345
  0.230
  0.085
 -0.020
 -0.110
 -0.165
 -0.220
 -0.270
 -0.295
 -0.320
 -0.310
 -0.295
 -0.295
 -0.285
 -0.285
 -0.275
 -0.265
 -0.255
 -0.280
 -0.285
 -0.285
 -0.245
 -0.220
 -0.235
 -0.250
 -0.255
 -0.225
 -0.205
 -0.180
 -0.160
 -0.155
 -0.180
 -0.205
 -0.215
 -0.230
 -0.235
 -0.245
 -0.240
 -0.210
 -0.195
 -0.170
 -0.165
 -0.165
 -0.155
 -0.180
 -0.175
 -0.155
 -0.145
 -0.125
 -0.125
 -0.125
 -0.115
 -0.110
 -0.125
 -0.115
 -0.115
 -0.080
 -0.050
 -0.025
 -0.005
 -0.035
 -0.040
 -0.055
 -0.060
 -0.040
 -0.025
 -0.020
 -0.010
 -0.020
 -0.020
 -0.015
 -0.005
 -0.010
 -0.010
 -0.005
  0.015
  0.035
  0.060
  0.050
  0.025
  0.025
  0.020
  0.025
  0.025
  0.035
  0.030
  0.020
  0.010
  0.010
  0.010
  0.000
 -0.015
 -0.040
 -0.040
 -0.010
 -0.015
 -0.015
 -0.030
 -0.060
 -0.080
 -0.095
 -0.095
 -0.095
 -0.110
 -0.120
 -0.115
 -0.125
 -0.135
 -0.170
 -0.200
 -0.225
 -0.245
 -0.235
 -0.230
 -0.230
 -0.250
 -0.255
 -0.265
 -0.255
 -0.250
 -0.230
 -0.255
 -0.260
 -0.255
 -0.255
 -0.290
 -0.295
 -0.295
 -0.310
 -0.285
 -0.255
 -0.250
 -0.255
 -0.275
 -0.280
 -0.285
 -0.285
 -0.295
 -0.305
 -0.320
 -0.315
 -0.300
 -0.280
 -0.295
 -0.305
 -0.345
 -0.355
 -0.345
 -0.335
 -0.325
 -0.330
 -0.350
 -0.360
 -0.360
 -0.370
 -0.370
 -0.380
 -0.385
 -0.405
 -0.385
 -0.375
 -0.365
 -0.380
 -0.400
 -0.400
 -0.410
 -0.405
 -0.370
 -0.355
 -0.355
 -0.355
 -0.355
 -0.375
 -0.370
 -0.380
 -0.395
 -0.400
 -0.380
 -0.365
 -0.325
 -0.335
 -0.340
 -0.345
 -0.320
 -0.305
 -0.285
 -0.260
 -0.235
 -0.225
 -0.210
 -0.200
 -0.195
 -0.220
 -0.245
 -0.265
 -0.255
 -0.225
 -0.185
 -0.190
 -0.205
 -0.240
 -0.285
 -0.320
 -0.355
 -0.355
 -0.345
 -0.345
 -0.335
 -0.360
 -0.365
 -0.395
 -0.425
 -0.415
 -0.400
 -0.370
 -0.350
 -0.350
 -0.365
 -0.390
 -0.410
 -0.425
 -0.420
 -0.435
 -0.460
 -0.450
 -0.460
 -0.455
 -0.445
 -0.465
 -0.475
 -0.485
 -0.460
 -0.430
 -0.435
 -0.475
 -0.490
 -0.515
 -0.500
 -0.465
 -0.430
 -0.410
 -0.405
 -0.380
 -0.370
 -0.355
 -0.365
 -0.390
 -0.415
 -0.410
 -0.400
 -0.385
 -0.360
 -0.355
 -0.335
 -0.335
 -0.300
 -0.280
 -0.275
 -0.295
 -0.320
 -0.335
 -0.330
 -0.300
 -0.285
 -0.280
 -0.305
 -0.355
 -0.345
 -0.365
 -0.395
 -0.435
 -0.460
 -0.470
 -0.450
 -0.400
 -0.360
 -0.320
 -0.285
 -0.250
 -0.185
 -0.165
 -0.140
 -0.085
  0.040
  0.215
  0.420
  0.535
  0.545
  0.470
  0.380
  0.290
  0.150
  0.005
 -0.090
 -0.155
 -0.210
 -0.230
 -0.230
 -0.235
 -0.215
 -0.240
 -0.250
 -0.260
 -0.255
 -0.240
 -0.215
 -0.195
 -0.190
 -0.175
 -0.195
 -0.200
 -0.200
 -0.200
 -0.195
 -0.210
 -0.215
 -0.210
 -0.205
 -0.190
 -0.200
 -0.220
 -0.200
 -0.180
 -0.160
 -0.155
 -0.165
 -0.160
 -0.165
 -0.175
 -0.170
 -0.155
 -0.160
 -0.145
 -0.140
 -0.115
 -0.115
 -0.130
 -0.140
 -0.110
 -0.100
 -0.075
 -0.045
 -0.050
 -0.045
 -0.065
 -0.075
 -0.070
 -0.065
 -0.065
 -0.060
 -0.030
 -0.015
  0.005
  0.015
  0.010
 -0.005
 -0.030
 -0.005
  0.010
  0.035
  0.045
  0.060
  0.050
  0.030
  0.015
  0.030
  0.035
  0.065
  0.080
  0.070
  0.065
  0.045
  0.040
  0.035
  0.035
  0.040
  0.060
  0.060
  0.040
  0.010
 -0.015
 -0.040
 -0.065
 -0.065
 -0.050
 -0.060
 -0.095
 -0.115
 -0.125
 -0.140
 -0.165
 -0.195
 -0.190
 -0.195
 -0.190
 -0.210
 -0.245
 -0.255
 -0.245
 -0.235
 -0.225
 -0.225
 -0.245
 -0.250
 -0.240
 -0.235
 -0.245
 -0.265
 -0.270
 -0.235
 -0.225
 -0.220
 -0.235
 -0.235
 -0.260
 -0.270
 -0.290
 -0.285
 -0.255
 -0.265
 -0.260
 -0.275
 -0.305
 -0.325
 -0.320
 -0.305
 -0.285
 -0.300
 -0.310
 -0.315
 -0.310
 -0.305
 -0.325
 -0.355
 -0.355
 -0.370
 -0.350
 -0.345
 -0.370
 -0.370
 -0.375
 -0.380
 -0.375
 -0.370
 -0.355
 -0.360
 -0.370
 -0.365
 -0.385
 -0.405
 -0.415
 -0.390
 -0.365
 -0.355
 -0.370
 -0.370
 -0.360
 -0.340
 -0.290
 -0.220
 -0.195
 -0.205
 -0.220
 -0.240
 -0.215
 -0.205
 -0.190
 -0.170
 -0.170
 -0.190
 -0.235
 -0.255
 -0.260
 -0.250
 -0.245
 -0.245
 -0.260
 -0.290
 -0.325
 -0.345
 -0.335
 -0.345
 -0.360
 -0.355
 -0.345
 -0.335
 -0.355
 -0.390
 -0.405
 -0.405
 -0.390
 -0.375
 -0.360
 -0.380
 -0.395
 -0.405
 -0.395
 -0.400
 -0.425
 -0.455
 -0.475
 -0.460
 -0.450
 -0.445
 -0.445
 -0.465
 -0.475
 -0.465
 -0.430
 -0.390
 -0.370
 -0.370
 -0.365
 -0.370
 -0.375
 -0.345
 -0.350
 -0.360
 -0.375
 -0.375
 -0.335
 -0.330
 -0.345
 -0.335
 -0.360
 -0.330
 -0.285
 -0.245
 -0.230
 -0.255
 -0.290
 -0.295
 -0.300
 -0.310
 -0.320
 -0.330
 -0.370
 -0.410
 -0.450
 -0.475
 -0.480
 -0.470
 -0.435
 -0.375
 -0.325
 -0.285
 -0.265
 -0.245
 -0.230
 -0.210
 -0.115
  0.070
  0.305
  0.500
  0.530
  0.440
  0.350
  0.265
  0.115
 -0.015
 -0.110
 -0.160
 -0.205
 -0.220
 -0.210
 -0.200
 -0.190
 -0.170
 -0.165
 -0.160
 -0.145
 -0.160
 -0.185
 -0.185
 -0.190
 -0.175
 -0.170
 -0.160
 -0.170
 -0.165
 -0.175
 -0.170
 -0.175
 -0.140
 -0.120
 -0.110
 -0.090
 -0.095
 -0.115
 -0.115
 -0.115
 -0.105
 -0.095
 -0.065
 -0.065
 -0.075
 -0.090
 -0.100
 -0.105
 -0.110
 -0.110
 -0.095
 -0.080
 -0.065
 -0.030
  0.010
 -0.010
 -0.045
 -0.070
 -0.050
 -0.020
  0.040
  0.050
  0.035
  0.015
  0.025
  0.045
  0.055
  0.055
  0.070
  0.080
  0.070
  0.080
  0.075
  0.070
  0.050
  0.065
  0.090
  0.105
  0.095
  0.080
  0.080
  0.090
  0.130
  0.155
  0.140
  0.115
  0.110
  0.085
  0.090
  0.120
  0.145
  0.140
  0.105
  0.085
  0.075
  0.085
  0.100
  0.095
  0.065
  0.005
 -0.005
 -0.020
 -0.030
 -0.040
 -0.070
 -0.080
 -0.065
 -0.065
 -0.075
 -0.090
 -0.105
 -0.130
 -0.115
 -0.105
 -0.125
 -0.125
 -0.135
 -0.160
 -0.180
 -0.205
 -0.230
 -0.235
 -0.215
 -0.185
 -0.185
 -0.170
 -0.195
 -0.190
 -0.215
 -0.240
 -0.235
 -0.230
 -0.225
 -0.230
 -0.255
 -0.265
 -0.250
 -0.225
 -0.215
 -0.230
 -0.270
 -0.280
 -0.270
 -0.245
 -0.245
 -0.270
 -0.275
 -0.290
 -0.315
 -0.310
 -0.315
 -0.320
 -0.320
 -0.335
 -0.325
 -0.320
 -0.305
 -0.310
 -0.335
 -0.375
 -0.340
 -0.315
 -0.310
 -0.300
 -0.305
 -0.325
 -0.315
 -0.325
 -0.330
 -0.330
 -0.345
 -0.350
 -0.340
 -0.335
 -0.340
 -0.350
 -0.335
 -0.325
 -0.315
 -0.315
 -0.290
 -0.270
 -0.255
 -0.245
 -0.235
 -0.200
 -0.175
 -0.200
 -0.220
 -0.215
 -0.200
 -0.180
 -0.180
 -0.195
 -0.200
 -0.230
 -0.250
 -0.260
 -0.250
 -0.265
 -0.285
 -0.310
 -0.305
 -0.300
 -0.285
 -0.285
 -0.280
 -0.295
 -0.300
 -0.285
 -0.305
 -0.340
 -0.370
 -0.365
 -0.355
 -0.360
 -0.380
 -0.400
 -0.395
 -0.405
 -0.395
 -0.395
 -0.385
 -0.395
 -0.410
 -0.450
 -0.440
 -0.420
 -0.415
 -0.420
 -0.430
 -0.440
 -0.445
 -0.430
 -0.415
 -0.395
 -0.375
 -0.365
 -0.350
 -0.340
 -0.325
 -0.320
 -0.325
 -0.355
 -0.380
 -0.350
 -0.310
 -0.280
 -0.270
 -0.305
 -0.310
 -0.285
 -0.270
 -0.270
 -0.290
 -0.345
 -0.345
 -0.310
 -0.290
 -0.310
 -0.335
 -0.350
 -0.380
 -0.410
 -0.455
 -0.490
 -0.500
 -0.485
 -0.445
 -0.390
 -0.320
 -0.250
 -0.210
 -0.220
 -0.225
 -0.205
 -0.140
 -0.010
  0.190
  0.380
  0.485
  0.490
  0.445
  0.405
  0.295
  0.130
 -0.010
 -0.100
 -0.175
 -0.220
 -0.250
 -0.255
 -0.250
 -0.235
 -0.205
 -0.215
 -0.220
 -0.245
 -0.255
 -0.255
 -0.235
 -0.220
 -0.220
 -0.245
 -0.230
 -0.230
 -0.225
 -0.230
 -0.230
 -0.240
 -0.225
 -0.200
 -0.190
 -0.185
 -0.200
 -0.210
 -0.210
 -0.195
 -0.160
 -0.135
 -0.150
 -0.165
 -0.185
 -0.185
 -0.165
 -0.160
 -0.160
 -0.160
 -0.135
 -0.100
 -0.085
 -0.065
 -0.075
 -0.120
 -0.125
 -0.120
 -0.100
 -0.105
 -0.090
 -0.085
 -0.070
 -0.055
 -0.045
 -0.055
 -0.060
 -0.045
 -0.035
 -0.005
  0.015
  0.020
  0.015
 -0.015
 -0.015
 -0.020
  0.000
  0.035
  0.020
  0.010
  0.025
  0.020
  0.015
  0.010
  0.000
  0.000
  0.005
  0.025
  0.055
  0.045
  0.035
 -0.015
 -0.005
  0.005
  0.010
 -0.005
 -0.015
 -0.030
 -0.045
 -0.065
 -0.090
 -0.100
 -0.110
 -0.120
 -0.125
 -0.130
 -0.135
 -0.140
 -0.155
 -0.170
 -0.205
 -0.230
 -0.210
 -0.210
 -0.195
 -0.210
 -0.220
 -0.245
 -0.260
 -0.280
 -0.285
 -0.295
 -0.260
 -0.260
 -0.255
 -0.255
 -0.265
 -0.285
 -0.290
 -0.275
 -0.260
 -0.265
 -0.285
 -0.305
 -0.305
 -0.280
 -0.265
 -0.275
 -0.300
 -0.305
 -0.290
 -0.265
 -0.270
 -0.280
 -0.290
 -0.295
 -0.280
 -0.285
 -0.275
 -0.290
 -0.310
 -0.355
 -0.385
 -0.400
 -0.395
 -0.410
 -0.395
 -0.405
 -0.395
 -0.405
 -0.410
 -0.415
 -0.415
 -0.385
 -0.315
 -0.240
 -0.165
 -0.130
 -0.175
 -0.295
 -0.410
 -0.495
 -0.505
 -0.495
 -0.450
 -0.370
 -0.270
 -0.245
 -0.275
 -0.290
 -0.330
 -0.335
 -0.355
 -0.350
 -0.325
 -0.305
 -0.280
 -0.240
 -0.190
 -0.130
 -0.105
 -0.095
 -0.105
 -0.125
 -0.140
 -0.160
 -0.190
 -0.195
 -0.185
 -0.210
 -0.255
 -0.305
 -0.305
 -0.295
 -0.310
 -0.345
 -0.395
 -0.440
 -0.490
 -0.560
 -0.585
 -0.635
 -0.610
 -0.590
 -0.545
 -0.535
 -0.535
 -0.520
 -0.510
 -0.485
 -0.460
 -0.440
 -0.450
 -0.450
 -0.435
 -0.405
 -0.385
 -0.390
 -0.370
 -0.365
 -0.355
 -0.355
 -0.385
 -0.450
 -0.515
 -0.560
 -0.565
 -0.550
 -0.520
 -0.525
 -0.555
 -0.580
 -0.560
 -0.535
 -0.495
 -0.450
 -0.410
 -0.395
 -0.355
 -0.335
 -0.315
 -0.330
 -0.355
 -0.365
 -0.360
 -0.360
 -0.345
 -0.325
 -0.285
 -0.230
 -0.160
 -0.130
 -0.120
 -0.160
 -0.240
 -0.315
 -0.400
 -0.460
 -0.530
 -0.590
 -0.630
 -0.615
 -0.550
 -0.460
 -0.435
 -0.440
 -0.460
 -0.490
 -0.485
 -0.475
 -0.455
 -0.460
 -0.365
 -0.195
  0.040
  0.265
  0.385
  0.385
  0.345
  0.300
  0.235
  0.160
  0.130
  0.110
  0.080
  0.025
 -0.040
 -0.070
 -0.095
 -0.090
 -0.120
 -0.130
 -0.125
 -0.120
 -0.125
 -0.120
 -0.160
 -0.225
 -0.275
 -0.330
 -0.390
 -0.390
 -0.395
 -0.390
 -0.370
 -0.320
 -0.305
 -0.240
 -0.240
 -0.250
 -0.255
 -0.240
 -0.230
 -0.230
 -0.210
 -0.185
 -0.150
 -0.135
 -0.110
 -0.115
 -0.140
 -0.175
 -0.185
 -0.175
 -0.155
 -0.140
 -0.140
 -0.135
 -0.125
 -0.095
 -0.085
 -0.090
 -0.095
 -0.105
 -0.090
 -0.070
 -0.045
 -0.035
 -0.025
 -0.045
 -0.055
 -0.050
 -0.015
  0.020
  0.035
  0.045
  0.035
  0.030
  0.025
  0.025
  0.025
  0.030
  0.020
  0.030
  0.035
  0.040
  0.015
  0.020
  0.025
  0.060
  0.080
  0.085
  0.110
  0.110
  0.110
  0.115
  0.115
  0.110
  0.120
  0.120
  0.100
  0.085
  0.095
  0.090
  0.095
  0.095
  0.105
  0.115
  0.125
  0.105
  0.110
  0.105
  0.125
  0.125
  0.115
  0.080
  0.065
  0.035
  0.030
  0.035
  0.035
  0.030
  0.025
  0.020
  0.020
  0.010
  0.020
 -0.015
 -0.020
 -0.055
 -0.085
 -0.090
 -0.090
 -0.095
 -0.090
 -0.075
 -0.050
 -0.030
 -0.030
 -0.065
 -0.090
 -0.100
 -0.100
 -0.085
 -0.075
 -0.080
 -0.090
 -0.105
 -0.120
 -0.100
 -0.095
 -0.095
 -0.110
 -0.135
 -0.135
 -0.115
 -0.115
 -0.120
 -0.130
 -0.155
 -0.140
 -0.140
 -0.115
 -0.135
 -0.150
 -0.130
 -0.115
 -0.095
 -0.090
 -0.100
 -0.105
 -0.105
 -0.125
 -0.120
 -0.130
 -0.160
 -0.155
 -0.160
 -0.185
 -0.160
 -0.145
 -0.140
 -0.155
 -0.160
 -0.175
 -0.175
 -0.150
 -0.165
 -0.165
 -0.165
 -0.170
 -0.165
 -0.150
 -0.140
 -0.140
 -0.150
 -0.155
 -0.145
 -0.150
 -0.170
 -0.180
 -0.150
 -0.135
 -0.115
 -0.100
 -0.110
 -0.135
 -0.140
 -0.150
 -0.150
 -0.140
 -0.165
 -0.185
 -0.160
 -0.145
 -0.105
 -0.095
 -0.100
 -0.105
 -0.095
 -0.105
 -0.090
 -0.050
 -0.050
 -0.045
 -0.040
 -0.040
 -0.015
  0.015
  0.010
  0.010
 -0.005
 -0.020
 -0.005
  0.010
  0.015
  0.005
 -0.020
 -0.040
 -0.040
 -0.020
 -0.030
 -0.065
 -0.090
 -0.115
 -0.110
 -0.100
 -0.105
 -0.125
 -0.135
 -0.150
 -0.140
 -0.125
 -0.125
 -0.150
 -0.150
 -0.170
 -0.170
 -0.145
 -0.160
 -0.170
 -0.175
 -0.195
 -0.205
 -0.205
 -0.215
 -0.225
 -0.240
 -0.230
 -0.200
 -0.195
 -0.190
 -0.200
 -0.215
 -0.235
 -0.230
 -0.210
 -0.220
 -0.225
 -0.240
 -0.255
 -0.245
 -0.230
 -0.220
 -0.215
 -0.220
 -0.210
 -0.190
 -0.145
 -0.125
 -0.125
 -0.135
 -0.150
 -0.125
 -0.105
 -0.105
 -0.095
 -0.105
 -0.105
 -0.090
 -0.070
 -0.070
 -0.070
 -0.065
 -0.085
 -0.065
 -0.055
 -0.055
 -0.050
 -0.045
 -0.040
 -0.025
 -0.020
 -0.040
 -0.040
 -0.060
 -0.055
 -0.070
 -0.065
 -0.085
 -0.110
 -0.140
 -0.180
 -0.210
 -0.210
 -0.235
 -0.230
 -0.215
 -0.190
 -0.150
 -0.115
 -0.075
 -0.055
 -0.030
 -0.020
 -0.015
 -0.005
  0.015
  0.045
  0.115
  0.245
  0.425
  0.580
  0.660
  0.665
  0.640
  0.595
  0.550
  0.465
  0.355
  0.230
  0.135
  0.085
  0.035
 -0.010
 -0.055
 -0.075
 -0.070
 -0.080
 -0.065
 -0.060
 -0.075
 -0.090
 -0.085
 -0.110
 -0.095
 -0.090
 -0.095
 -0.100
 -0.100
 -0.110
 -0.090
 -0.105
 -0.085
 -0.090
 -0.100
 -0.110
 -0.115
 -0.080
 -0.080
 -0.095
 -0.095
 -0.095
 -0.095
 -0.080
 -0.095
 -0.125
 -0.110
 -0.115
 -0.095
 -0.080
 -0.075
 -0.075
 -0.095
 -0.110
 -0.095
 -0.065
 -0.065
 -0.055
 -0.055
 -0.055
 -0.055
 -0.030
 -0.035
 -0.050
 -0.040
 -0.070
 -0.065
 -0.060
 -0.060
 -0.065
 -0.050
 -0.050
 -0.010
  0.015
  0.000
 -0.005
 -0.015
 -0.005
  0.005
  0.040
  0.055
  0.030
  0.035
  0.030
  0.055
  0.085
  0.085
  0.085
  0.070
  0.040
  0.055
  0.065
  0.065
  0.070
  0.075
  0.095
  0.105
  0.135
  0.130
  0.140
  0.115
  0.105
  0.090
  0.110
  0.105
  0.100
  0.100
  0.115
  0.140
  0.150
  0.140
  0.105
  0.100
  0.115
  0.120
  0.125
  0.135
  0.140
  0.110
  0.100
  0.095
  0.090
  0.055
  0.040
  0.020
  0.020
  0.035
  0.045
  0.030
  0.010
 -0.020
 -0.030
 -0.050
 -0.045
 -0.040
 -0.050
 -0.055
 -0.075
 -0.070
 -0.040
 -0.050
 -0.070
 -0.080
 -0.085
 -0.095
 -0.095
 -0.105
 -0.110
 -0.125
 -0.115
 -0.100
 -0.080
 -0.105
 -0.140
 -0.160
 -0.155
 -0.125
 -0.070
 -0.040
 -0.055
 -0.050
 -0.060
 -0.055
  0.000
  0.075
  0.185
  0.300
  0.385
  0.435
  0.405
  0.295
  0.135
 -0.025
 -0.175
 -0.225
 -0.240
 -0.240
 -0.265
 -0.320
 -0.345
 -0.415
 -0.445
 -0.480
 -0.520
 -0.550
 -0.560
 -0.560
 -0.525
 -0.490
 -0.475
 -0.455
 -0.435
 -0.380
 -0.345
 -0.320
 -0.300
 -0.305
 -0.310
 -0.300
 -0.285
 -0.280
 -0.280
 -0.270
 -0.230
 -0.210
 -0.185
 -0.185
 -0.180
 -0.190
 -0.195
 -0.200
 -0.195
 -0.195
 -0.200
 -0.235
 -0.265
 -0.300
 -0.315
 -0.345
 -0.390
 -0.430
 -0.430
 -0.420
 -0.380
 -0.350
 -0.335
 -0.315
 -0.295
 -0.285
 -0.235
 -0.235
 -0.215
 -0.235
 -0.235
 -0.230
 -0.220
 -0.215
 -0.200
 -0.185
 -0.160
 -0.145
 -0.145
 -0.165
 -0.190
 -0.225
 -0.245
 -0.230
 -0.225
 -0.230
 -0.245
 -0.245
 -0.255
 -0.265
 -0.285
 -0.285
 -0.310
 -0.325
 -0.330
 -0.305
 -0.305
 -0.310
 -0.330
 -0.360
 -0.390
 -0.385
 -0.375
 -0.350
 -0.335
 -0.345
 -0.360
 -0.365
 -0.375
 -0.385
 -0.395
 -0.390
 -0.385
 -0.360
 -0.345
 -0.345
 -0.360
 -0.365
 -0.365
 -0.370
 -0.390
 -0.400
 -0.410
 -0.415
 -0.405
 -0.375
 -0.345
 -0.335
 -0.320
 -0.315
 -0.315
 -0.315
 -0.295
 -0.275
 -0.270
 -0.295
 -0.290
 -0.265
 -0.245
 -0.225
 -0.240
 -0.265
 -0.260
 -0.260
 -0.235
 -0.220
 -0.230
 -0.230
 -0.225
 -0.235
 -0.230
 -0.260
 -0.270
 -0.265
 -0.275
 -0.240
 -0.230
 -0.225
 -0.265
 -0.295
 -0.325
 -0.345
 -0.365
 -0.395
 -0.400
 -0.395
 -0.385
 -0.345
 -0.305
 -0.260
 -0.250
 -0.250
 -0.265
 -0.255
 -0.205
 -0.135
 -0.015
  0.140
  0.315
  0.440
  0.520
  0.495
  0.460
  0.415
  0.410
  0.355
  0.250
  0.145
  0.065
  0.000
 -0.040
 -0.065
 -0.090
 -0.100
 -0.115
 -0.140
 -0.140
 -0.115
 -0.085
 -0.090
 -0.105
 -0.145
 -0.160
 -0.120
 -0.090
 -0.090
 -0.085
 -0.100
 -0.100
 -0.080
 -0.060
 -0.065
 -0.075
 -0.090
 -0.090
 -0.060
 -0.050
 -0.040
 -0.040
 -0.040
 -0.035
 -0.030
 -0.025
 -0.005
  0.000
  0.005
  0.010
  0.015
  0.030
  0.030
  0.030
  0.020
  0.025
  0.030
  0.025
  0.050
  0.040
  0.035
  0.040
  0.060
  0.075
  0.060
  0.065
  0.080
  0.090
  0.105
  0.130
  0.125
  0.135
  0.115
  0.120
  0.140
  0.160
  0.175
  0.165
  0.165
  0.165
  0.175
  0.190
  0.185
  0.175
  0.175
  0.175
  0.190
  0.210
  0.230
  0.240
  0.200
  0.190
  0.185
  0.215
  0.240
  0.235
  0.220
  0.205
  0.215
  0.240
  0.215
  0.160
  0.140
  0.110
  0.115
  0.145
  0.160
  0.180
  0.180
  0.150
  0.140
  0.125
  0.095
  0.075
  0.090
  0.100
  0.105
  0.095
  0.085
  0.080
  0.075
  0.050
  0.020
  0.005
 -0.020
 -0.035
 -0.035
 -0.030
 -0.005
  0.010
  0.015
 -0.010
 -0.030
 -0.050
 -0.050
 -0.085
 -0.090
 -0.085
 -0.080
 -0.055
 -0.025
 -0.035
 -0.080
 -0.085
 -0.090
 -0.095
 -0.090
 -0.085
 -0.060
 -0.060
 -0.075
 -0.090
 -0.110
 -0.120
 -0.115
 -0.110
 -0.105
 -0.105
 -0.105
 -0.125
 -0.130
 -0.160
 -0.145
 -0.130
 -0.120
 -0.115
 -0.105
 -0.110
 -0.135
 -0.160
 -0.140
 -0.160
 -0.165
 -0.195
 -0.200
 -0.215
 -0.190
 -0.170
 -0.185
 -0.205
 -0.200
 -0.185
 -0.180
 -0.170
 -0.150
 -0.130
 -0.120
 -0.130
 -0.140
 -0.120
 -0.130
 -0.165
 -0.190
 -0.210
 -0.200
 -0.170
 -0.145
 -0.130
 -0.130
 -0.125
 -0.105
 -0.070
 -0.075
 -0.075
 -0.080
 -0.065
 -0.030
  0.015
  0.000
 -0.005
 -0.030
 -0.030
 -0.015
  0.000
  0.005
 -0.015
 -0.035
 -0.040
 -0.055
 -0.080
 -0.090
 -0.115
 -0.145
 -0.180
 -0.195
 -0.200
 -0.195
 -0.195
 -0.210
 -0.210
 -0.185
 -0.190
 -0.205
 -0.220
 -0.205
 -0.205
 -0.200
 -0.210
 -0.245
 -0.240
 -0.260
 -0.270
 -0.260
 -0.265
 -0.265
 -0.260
 -0.275
 -0.265
 -0.255
 -0.245
 -0.260
 -0.270
 -0.270
 -0.285
 -0.270
 -0.240
 -0.225
 -0.225
 -0.235
 -0.210
 -0.175
 -0.125
 -0.060
 -0.005
  0.030
  0.000
 -0.025
 -0.040
 -0.040
  0.005
  0.050
  0.130
  0.205
  0.210
  0.135
  0.035
 -0.085
 -0.165
 -0.180
 -0.160
 -0.105
 -0.080
 -0.080
 -0.095
 -0.105
 -0.145
 -0.205
 -0.285
 -0.335
 -0.365
 -0.390
 -0.405
 -0.385
 -0.350
 -0.300
 -0.270
 -0.225
 -0.150
 -0.055
  0.055
  0.120
  0.205
  0.270
  0.290
  0.275
  0.250
  0.305
  0.435
  0.540
  0.550
  0.450
  0.320
  0.165
  0.020
 -0.090
 -0.150
 -0.175
 -0.210
 -0.235
 -0.235
 -0.210
 -0.190
 -0.165
 -0.145
 -0.135
 -0.115
 -0.105
 -0.120
 -0.120
 -0.115
 -0.115
 -0.115
 -0.090
 -0.085
 -0.100
 -0.120
 -0.130
 -0.140
 -0.105
 -0.055
 -0.020
 -0.030
 -0.065
 -0.085
 -0.075
 -0.060
 -0.035
 -0.030
 -0.040
 -0.045
 -0.040
 -0.035
 -0.010
  0.020
  0.020
  0.040
  0.045
  0.065
  0.060
  0.055
  0.030
  0.020
  0.035
  0.045
  0.050
  0.040
  0.030
  0.050
  0.080
  0.100
  0.130
  0.125
  0.135
  0.125
  0.120
  0.135
  0.170
  0.180
  0.190
  0.180
  0.185
  0.195
  0.175
  0.185
  0.190
  0.200
  0.225
  0.255
  0.280
  0.255
  0.235
  0.205
  0.210
  0.200
  0.215
  0.205
  0.210
  0.210
  0.235
  0.250
  0.265
  0.255
  0.240
  0.240
  0.235
  0.235
  0.200
  0.185
  0.150
  0.135
  0.140
  0.140
  0.130
  0.100
  0.085
  0.060
  0.040
  0.030
  0.030
  0.025
 -0.005
 -0.015
 -0.015
  0.005
 -0.005
 -0.010
 -0.035
 -0.045
 -0.055
 -0.050
 -0.065
 -0.065
 -0.060
 -0.050
 -0.035
 -0.045
 -0.060
 -0.085
 -0.110
 -0.100
 -0.080
 -0.065
 -0.055
 -0.055
 -0.080
 -0.075
 -0.080
 -0.065
 -0.060
 -0.040
 -0.050
 -0.060
 -0.065
 -0.070
 -0.090
 -0.100
 -0.115
 -0.115
 -0.115
 -0.085
 -0.085
 -0.085
 -0.100
 -0.115
 -0.110
 -0.095
 -0.080
 -0.065
 -0.070
 -0.090
 -0.100
 -0.100
 -0.090
 -0.080
 -0.095
 -0.095
 -0.080
 -0.075
 -0.070
 -0.085
 -0.105
 -0.080
 -0.045
 -0.020
 -0.005
 -0.005
 -0.035
 -0.070
 -0.075
 -0.055
 -0.015
 -0.005
 -0.020
 -0.035
 -0.045
 -0.080
 -0.085
 -0.085
 -0.045
  0.015
  0.090
  0.210
  0.335
  0.470
  0.575
  0.640
  0.750
  0.925
  1.125
  1.310
  1.435
  1.550
  1.675
  1.780
  1.855
  1.915
  2.000
  2.130
  2.260
  2.340
  2.390
  2.415
  2.400
  2.345
  2.220
  2.045
  1.775
  1.460
  1.120
  0.795
  0.490
  0.230
  0.015
 -0.110
 -0.180
 -0.285
 -0.385
 -0.445
 -0.480
 -0.485
 -0.515
 -0.530
 -0.520
 -0.490
 -0.455
 -0.480
 -0.475
 -0.480
 -0.475
 -0.475
 -0.475
 -0.470
 -0.485
 -0.480
 -0.480
 -0.485
 -0.485
 -0.510
 -0.495
 -0.480
 -0.455
 -0.470
 -0.490
 -0.515
 -0.535
 -0.505
 -0.505
 -0.505
 -0.525
 -0.530
 -0.560
 -0.590
 -0.605
 -0.600
 -0.605
 -0.605
 -0.605
 -0.635
 -0.660
 -0.680
 -0.680
 -0.670
 -0.680
 -0.660
 -0.640
 -0.630
 -0.625
 -0.625
 -0.650
 -0.665
 -0.665
 -0.645
 -0.630
 -0.630
 -0.660
 -0.665
 -0.660
 -0.635
 -0.615
 -0.590
 -0.575
 -0.565
 -0.550
 -0.520
 -0.510
 -0.520
 -0.535
 -0.535
 -0.510
 -0.500
 -0.460
 -0.440
 -0.430
 -0.410
 -0.380
 -0.370
 -0.350
 -0.350
 -0.345
 -0.345
 -0.355
 -0.340
 -0.340
 -0.335
 -0.305
 -0.280
 -0.235
 -0.215
 -0.200
 -0.220
 -0.215
 -0.240
 -0.230
 -0.225
 -0.205
 -0.165
 -0.140
 -0.145
 -0.140
 -0.150
 -0.145
 -0.145
 -0.150
 -0.160
 -0.165
 -0.165
 -0.180
 -0.185
 -0.190
 -0.225
 -0.195
 -0.170
 -0.150
 -0.140
 -0.140
 -0.160
 -0.175
 -0.175
 -0.180
 -0.200
 -0.205
 -0.185
 -0.155
 -0.125
 -0.130
 -0.150
 -0.175
 -0.185
 -0.200
 -0.180
 -0.145
 -0.145
 -0.150
 -0.160
 -0.170
 -0.160
 -0.150
 -0.150
 -0.165
 -0.165
 -0.160
 -0.140
 -0.150
 -0.185
 -0.185
 -0.170
 -0.165
 -0.125
 -0.115
 -0.095
 -0.115
 -0.130
 -0.135
 -0.145
 -0.160
 -0.125
 -0.125
 -0.120
 -0.120
 -0.095
 -0.090
 -0.095
 -0.105
 -0.125
 -0.105
 -0.090
 -0.085
 -0.095
 -0.100
 -0.115
 -0.125
 -0.130
 -0.130
 -0.135
 -0.095
 -0.095
 -0.085
 -0.085
 -0.085
 -0.105
 -0.130
 -0.130
 -0.125
 -0.110
 -0.095
 -0.095
 -0.110
 -0.100
 -0.120
 -0.120
 -0.110
 -0.090
 -0.085
 -0.085
 -0.095
 -0.095
 -0.095
 -0.100
 -0.105
 -0.110
 -0.095
 -0.065
 -0.050
 -0.050
 -0.070
 -0.095
 -0.115
 -0.125
 -0.135
 -0.145
 -0.145
 -0.125
 -0.100
 -0.090
 -0.100
 -0.115
 -0.125
 -0.120
 -0.090
 -0.070
 -0.055
 -0.040
 -0.040
 -0.040
 -0.015
 -0.015
 -0.005
  0.015
  0.035
  0.045
  0.030
  0.025
  0.020
  0.030
  0.015
  0.015
  0.035
  0.025
 -0.010
 -0.065
 -0.110
 -0.160
 -0.170
 -0.150
 -0.150
 -0.145
 -0.165
 -0.205
 -0.185
 -0.170
 -0.165
 -0.180
 -0.205
 -0.220
 -0.205
 -0.205
 -0.195
 -0.220
 -0.235
 -0.250
 -0.245
 -0.235
 -0.235
 -0.255
 -0.270
 -0.270
 -0.270
 -0.275
 -0.245
 -0.225
 -0.230
 -0.260
 -0.275
 -0.265
 -0.260
 -0.250
 -0.235
 -0.205
 -0.165
 -0.160
 -0.185
 -0.205
 -0.235
 -0.260
 -0.265
 -0.240
 -0.185
 -0.160
 -0.155
 -0.170
 -0.155
 -0.145
 -0.125
 -0.110
 -0.110
 -0.125
 -0.125
 -0.125
 -0.150
 -0.180
 -0.230
 -0.280
 -0.330
 -0.335
 -0.300
 -0.285
 -0.270
 -0.245
 -0.200
 -0.160
 -0.150
 -0.120
 -0.085
  0.000
  0.185
  0.415
  0.585
  0.630
  0.545
  0.445
  0.315
  0.190
  0.075
 -0.005
 -0.070
 -0.125
 -0.145
 -0.135
 -0.105
 -0.080
 -0.070
 -0.080
 -0.095
 -0.085
 -0.075
 -0.065
 -0.060
 -0.080
 -0.060
 -0.055
 -0.070
 -0.085
 -0.080
 -0.055
 -0.020
  0.015
  0.025
  0.025
  0.000
 -0.010
 -0.010
 -0.005
  0.010
  0.010
  0.015
  0.005
  0.020
  0.035
  0.045
  0.045
  0.045
  0.065
  0.085
  0.090
  0.090
  0.090
  0.100
  0.085
  0.110
  0.130
  0.155
  0.175
  0.155
  0.160
  0.165
  0.165
  0.195
  0.175
  0.180
  0.160
  0.165
  0.175
  0.195
  0.195
  0.195
  0.190
  0.200
  0.205
  0.225
  0.245
  0.245
  0.235
  0.240
  0.240
  0.240
  0.255
  0.260
  0.245
  0.235
  0.245
  0.240
  0.220
  0.215
  0.225
  0.250
  0.250
  0.240
  0.225
  0.215
  0.185
  0.170
  0.170
  0.155
  0.165
  0.175
  0.155
  0.125
  0.115
  0.090
  0.075
  0.040
  0.010
  0.015
  0.025
  0.025
  0.000
 -0.010
 -0.025
 -0.020
 -0.035
 -0.035
 -0.055
 -0.070
 -0.090
 -0.090
 -0.075
 -0.055
 -0.045
 -0.065
 -0.085
 -0.095
 -0.075
 -0.080
 -0.090
 -0.095
 -0.115
 -0.120
 -0.115
 -0.105
 -0.110
 -0.135
 -0.160
 -0.175
 -0.170
 -0.165
 -0.175
 -0.180
 -0.215
 -0.195
 -0.185
 -0.180
 -0.185
 -0.225
 -0.270
 -0.250
 -0.260
 -0.255
 -0.255
 -0.265
 -0.280
 -0.270
 -0.280
 -0.305
 -0.340
 -0.350
 -0.385
 -0.420
 -0.445
 -0.460
 -0.480
 -0.475
 -0.435
 -0.340
 -0.225
 -0.090
  0.020
  0.100
  0.170
  0.270
  0.415
  0.600
  0.805
  0.965
  1.140
  1.310
  1.465
  1.585
  1.705
  1.770
  1.840
  1.940
  2.045
  2.155
  2.215
  2.270
  2.290
  2.280
  2.235
  2.135
  1.935
  1.690
  1.400
  1.075
  0.735
  0.425
  0.160
 -0.030
 -0.180
 -0.295
 -0.400
 -0.520
 -0.595
 -0.640
 -0.685
 -0.700
 -0.710
 -0.735
 -0.740
 -0.745
 -0.750
 -0.725
 -0.725
 -0.730
 -0.760
 -0.775
 -0.815
 -0.830
 -0.825
 -0.825
 -0.825
 -0.850
 -0.875
 -0.890
 -0.885
 -0.900
 -0.940
 -0.940
 -0.920
 -0.895
 -0.875
 -0.860
 -0.860
 -0.875
 -0.895
 -0.900
 -0.915
 -0.900
 -0.890
 -0.885
 -0.900
 -0.900
 -0.920
 -0.925
 -0.955
 -0.970
 -0.985
 -0.975
 -0.955
 -0.935
 -0.930
 -0.945
 -0.970
 -0.975
 -0.965
 -0.950
 -0.955
 -0.965
 -0.970
 -0.955
 -0.955
 -0.940
 -0.965
 -0.985
 -0.995
 -0.970
 -0.955
 -0.935
 -0.940
 -0.925
 -0.945
 -0.945
 -0.910
 -0.900
 -0.890
 -0.885
 -0.895
 -0.865
 -0.835
 -0.795
 -0.810
 -0.800
 -0.820
 -0.805
 -0.790
 -0.740
 -0.705
 -0.685
 -0.700
 -0.700
 -0.700
 -0.670
 -0.630
 -0.610
 -0.600
 -0.560
 -0.540
 -0.535
 -0.540
 -0.550
 -0.565
 -0.550
 -0.510
 -0.485
 -0.480
 -0.485
 -0.470
 -0.465
 -0.465
 -0.445
 -0.435
 -0.420
 -0.420
 -0.425
 -0.410
 -0.435
 -0.420
 -0.425
 -0.440
 -0.425
 -0.405
 -0.365
 -0.365
 -0.385
 -0.385
 -0.395
 -0.395
 -0.385
 -0.375
 -0.365
 -0.370
 -0.360
 -0.365
 -0.365
 -0.375
 -0.390
 -0.385
 -0.370
 -0.350
 -0.330
 -0.330
 -0.360
 -0.370
 -0.360
 -0.355
 -0.330
 -0.315
 -0.330
 -0.340
 -0.335
 -0.335
 -0.320
 -0.320
 -0.290
 -0.280
 -0.290
 -0.315
 -0.305
 -0.330
 -0.340
 -0.345
 -0.325
 -0.290
 -0.260
 -0.285
 -0.315
 -0.335
 -0.340
 -0.335
 -0.295
 -0.280
 -0.310
 -0.315
 -0.330
 -0.310
 -0.305
 -0.305
 -0.320
 -0.305
 -0.295
 -0.285
 -0.280
 -0.290
 -0.305
 -0.335
 -0.330
 -0.310
 -0.310
 -0.270
 -0.280
 -0.295
 -0.295
 -0.310
 -0.295
 -0.290
 -0.285
 -0.295
 -0.280
 -0.270
 -0.255
 -0.260
 -0.280
 -0.320
 -0.335
 -0.320
 -0.310
 -0.290
 -0.280
 -0.280
 -0.275
 -0.275
 -0.280
 -0.295
 -0.320
 -0.320
 -0.320
 -0.285
 -0.265
 -0.260
 -0.275
 -0.295
 -0.295
 -0.280
 -0.270
 -0.275
 -0.285
 -0.285
 -0.285
 -0.275
 -0.265
 -0.260
 -0.280
 -0.280
 -0.280
 -0.275
 -0.280
 -0.275
 -0.275
 -0.285
 -0.265
 -0.245
 -0.225
 -0.210
 -0.230
 -0.260
 -0.290
 -0.295
 -0.260
 -0.255
 -0.250
 -0.255
 -0.240
 -0.230
 -0.210
 -0.205
 -0.195
 -0.185
 -0.170
 -0.125
 -0.095
 -0.105
 -0.100
 -0.130
 -0.115
 -0.130
 -0.115
 -0.125
 -0.125
 -0.150
 -0.160
 -0.150
 -0.155
 -0.170
 -0.210
 -0.250
 -0.260
 -0.260
 -0.255
 -0.285
 -0.280
 -0.300
 -0.290
 -0.310
 -0.315
 -0.345
 -0.355
 -0.350
 -0.340
 -0.315
 -0.295
 -0.280
 -0.285
 -0.305
 -0.320
 -0.335
 -0.335
 -0.335
 -0.360
 -0.370
 -0.375
 -0.360
 -0.360
 -0.360
 -0.375
 -0.375
 -0.360
 -0.355
 -0.335
 -0.330
 -0.335
 -0.325
 -0.310
 -0.285
 -0.260
 -0.255
 -0.265
 -0.275
 -0.260
 -0.260
 -0.245
 -0.245
 -0.250
 -0.265
 -0.255
 -0.245
 -0.225
 -0.210
 -0.210
 -0.215
 -0.210
 -0.210
 -0.205
 -0.215
 -0.210
 -0.215
 -0.205
 -0.180
 -0.170
 -0.190
 -0.240
 -0.305
 -0.345
 -0.350
 -0.345
 -0.330
 -0.305
 -0.275
 -0.225
 -0.190
 -0.185
 -0.170
 -0.145
 -0.140
 -0.105
 -0.040
  0.060
  0.200
  0.370
  0.510
  0.570
  0.550
  0.505
  0.445
  0.345
  0.200
  0.105
  0.030
 -0.020
 -0.070
 -0.140
 -0.145
 -0.135
 -0.105
 -0.090
 -0.070
 -0.085
 -0.100
 -0.085
 -0.090
 -0.065
 -0.070
 -0.060
 -0.080
 -0.065
 -0.075
 -0.070
 -0.085
 -0.095
 -0.095
 -0.075
 -0.040
 -0.020
 -0.005
 -0.015
 -0.025
 -0.025
 -0.035
 -0.045
  0.000
  0.015
  0.025
  0.040
  0.055
  0.060
  0.050
  0.035
  0.005
  0.015
  0.025
  0.040
  0.040
  0.040
  0.015
  0.035
  0.070
  0.085
  0.075
  0.055
  0.050
  0.060
  0.095
  0.110
  0.140
  0.140
  0.125
  0.125
  0.145
  0.145
  0.115
  0.105
  0.085
  0.100
  0.125
  0.150
  0.165
  0.190
  0.175
  0.155
  0.160
  0.165
  0.180
  0.175
  0.170
  0.195
  0.200
  0.210
  0.185
  0.155
  0.135
  0.170
  0.205
  0.220
  0.240
  0.225
  0.225
  0.230
  0.220
  0.220
  0.200
  0.175
  0.175
  0.195
  0.220
  0.235
  0.215
  0.195
  0.165
  0.165
  0.155
  0.135
  0.135
  0.120
  0.110
  0.120
  0.140
  0.155
  0.135
  0.110
  0.055
  0.050
  0.060
  0.075
  0.065
  0.045
  0.015
  0.010
 -0.020
 -0.045
 -0.060
 -0.080
 -0.105
 -0.095
 -0.080
 -0.040
 -0.040
 -0.050
 -0.090
 -0.080
 -0.075
 -0.085
 -0.100
 -0.125
 -0.130
 -0.100
 -0.105
 -0.105
 -0.115
 -0.115
 -0.140
 -0.145
 -0.135
 -0.110
 -0.090
 -0.085
 -0.085
 -0.100
 -0.095
 -0.115
 -0.145
 -0.185
 -0.220
 -0.225
 -0.220
 -0.190
 -0.180
 -0.185
 -0.210
 -0.210
 -0.190
 -0.195
 -0.195
 -0.215
 -0.240
 -0.240
 -0.225
 -0.210
 -0.220
 -0.225
 -0.250
 -0.245
 -0.235
 -0.235
 -0.240
 -0.275
 -0.300
 -0.330
 -0.345
 -0.350
 -0.370
 -0.370
 -0.375
 -0.340
 -0.270
 -0.185
 -0.100
 -0.010
  0.055
  0.155
  0.245
  0.355
  0.460
  0.580
  0.755
  0.950
  1.130
  1.300
  1.410
  1.515
  1.610
  1.720
  1.825
  1.920
  2.020
  2.100
  2.160
  2.230
  2.265
  2.310
  2.315
  2.305
  2.280
  2.200
  2.065
  1.880
  1.620
  1.325
  1.030
  0.745
  0.445
  0.175
 -0.040
 -0.195
 -0.315
 -0.430
 -0.515
 -0.555
 -0.605
 -0.650
 -0.690
 -0.710
 -0.705
 -0.705
 -0.700
 -0.710
 -0.730
 -0.715
 -0.700
 -0.700
 -0.725
 -0.725
 -0.760
 -0.750
 -0.755
 -0.755
 -0.765
 -0.795
 -0.815
 -0.810
 -0.805
 -0.785
 -0.770
 -0.760
 -0.750
 -0.755
 -0.765
 -0.770
 -0.785
 -0.805
 -0.820
 -0.815
 -0.815
 -0.800
 -0.785
 -0.800
 -0.820
 -0.815
 -0.825
 -0.850
 -0.850
 -0.865
 -0.875
 -0.880
 -0.865
 -0.835
 -0.845
 -0.845
 -0.865
 -0.880
 -0.865
 -0.860
 -0.875
 -0.885
 -0.890
 -0.895
 -0.880
 -0.885
 -0.865
 -0.885
 -0.895
 -0.890
 -0.905
 -0.885
 -0.885
 -0.885
 -0.880
 -0.875
 -0.870
 -0.855
 -0.845
 -0.860
 -0.845
 -0.840
 -0.815
 -0.810
 -0.795
 -0.800
 -0.815
 -0.795
 -0.740
 -0.725
 -0.720
 -0.745
 -0.735
 -0.710
 -0.690
 -0.665
 -0.650
 -0.650
 -0.660
 -0.630
 -0.615
 -0.580
 -0.570
 -0.575
 -0.570
 -0.555
 -0.520
 -0.490
 -0.475
 -0.490
 -0.485
 -0.480
 -0.475
 -0.460
 -0.435
 -0.430
 -0.425
 -0.405
 -0.385
 -0.365
 -0.355
 -0.360
 -0.370
 -0.360
 -0.355
 -0.335
 -0.335
 -0.330
 -0.350
 -0.365
 -0.360
 -0.335
 -0.330
 -0.330
 -0.340
 -0.340
 -0.315
 -0.295
 -0.285
 -0.285
 -0.290
 -0.295
 -0.295
 -0.285
 -0.295
 -0.305
 -0.315
 -0.305
 -0.295
 -0.260
 -0.260
 -0.275
 -0.300
 -0.310
 -0.290
 -0.250
 -0.240
 -0.240
 -0.245
 -0.245
 -0.250
 -0.245
 -0.245
 -0.250
 -0.255
 -0.260
 -0.260
 -0.265
 -0.275
 -0.285
 -0.295
 -0.280
 -0.260
 -0.255
 -0.260
 -0.275
 -0.280
 -0.285
 -0.270
 -0.265
 -0.270
 -0.255
 -0.255
 -0.235
 -0.225
 -0.210
 -0.225
 -0.255
 -0.270
 -0.260
 -0.240
 -0.215
 -0.220
 -0.250
 -0.260
 -0.260
 -0.240
 -0.220
 -0.230
 -0.225
 -0.230
 -0.230
 -0.215
 -0.195
 -0.200
 -0.220
 -0.230
 -0.240
 -0.245
 -0.240
 -0.230
 -0.230
 -0.240
 -0.250
 -0.235
 -0.245
 -0.235
 -0.240
 -0.225
 -0.200
 -0.190
 -0.180
 -0.200
 -0.230
 -0.225
 -0.225
 -0.220
 -0.215
 -0.215
 -0.215
 -0.200
 -0.190
 -0.195
 -0.205
 -0.220
 -0.235
 -0.245
 -0.225
 -0.210
 -0.210
 -0.215
 -0.235
 -0.235
 -0.255
 -0.240
 -0.215
 -0.215
 -0.225
 -0.240
 -0.250
 -0.245
 -0.210
 -0.205
 -0.215
 -0.250
 -0.250
 -0.240
 -0.225
 -0.195
 -0.220
 -0.245
 -0.255
 -0.255
 -0.210
 -0.205
 -0.190
 -0.210
 -0.205
 -0.195
 -0.180
 -0.180
 -0.205
 -0.220
 -0.235
 -0.230
 -0.225
 -0.230
 -0.245
 -0.225
 -0.225
 -0.225
 -0.220
 -0.225
 -0.220
 -0.230
 -0.225
 -0.195
 -0.180
 -0.165
 -0.155
 -0.160
 -0.155
 -0.155
 -0.140
 -0.125
 -0.135
 -0.140
 -0.125
 -0.115
 -0.085
 -0.110
 -0.130
 -0.130
 -0.155
 -0.175
 -0.185
 -0.200
 -0.215
 -0.250
 -0.270
 -0.270
 -0.280
 -0.290
 -0.290
 -0.285
 -0.295
 -0.290
 -0.295
 -0.315
 -0.330
 -0.365
 -0.385
 -0.360
 -0.340
 -0.335
 -0.345
 -0.350
 -0.350
 -0.345
 -0.330
 -0.345
 -0.380
 -0.400
 -0.415
 -0.415
 -0.385
 -0.385
 -0.390
 -0.400
 -0.395
 -0.390
 -0.380
 -0.395
 -0.420
 -0.425
 -0.425
 -0.405
 -0.380
 -0.365
 -0.365
 -0.355
 -0.360
 -0.375
 -0.355
 -0.360
 -0.360
 -0.355
 -0.345
 -0.325
 -0.315
 -0.305
 -0.310
 -0.330
 -0.320
 -0.315
 -0.325
 -0.335
 -0.335
 -0.325
 -0.335
 -0.330
 -0.320
 -0.335
 -0.330
 -0.335
 -0.335
 -0.335
 -0.330
 -0.370
 -0.395
 -0.430
 -0.420
 -0.410
 -0.370
 -0.345
 -0.325
 -0.290
 -0.270
 -0.235
 -0.215
 -0.185
 -0.200
 -0.185
 -0.130
 -0.020
  0.130
  0.260
  0.355
  0.370
  0.320
  0.250
  0.165
  0.040
 -0.065
 -0.140
 -0.185
 -0.225
 -0.215
 -0.250
 -0.270
 -0.290
 -0.310
 -0.290
 -0.265
 -0.250
 -0.250
 -0.255
 -0.255
 -0.255
 -0.230
 -0.245
 -0.230
 -0.245
 -0.250
 -0.220
 -0.210
 -0.210
 -0.235
 -0.240
 -0.260
 -0.250
 -0.235
 -0.230
 -0.230
 -0.225
 -0.220
 -0.200
 -0.185
 -0.195
 -0.205
 -0.210
 -0.205
 -0.170
 -0.150
 -0.165
 -0.170
 -0.180
 -0.205
 -0.195
 -0.170
 -0.145
 -0.125
 -0.125
 -0.135
 -0.130
 -0.115
 -0.125
 -0.120
 -0.110
 -0.110
 -0.095
 -0.075
 -0.070
 -0.070
 -0.085
 -0.070
 -0.060
 -0.055
 -0.050
 -0.050
 -0.045
 -0.055
 -0.045
 -0.035
 -0.025
 -0.010
 -0.010
 -0.020
 -0.020
 -0.010
 -0.025
 -0.040
 -0.050
 -0.055
 -0.040
 -0.020
 -0.015
 -0.025
 -0.025
 -0.035
 -0.030
 -0.015
 -0.020
 -0.030
 -0.035
 -0.055
 -0.045
 -0.020
 -0.030
 -0.035
 -0.060
 -0.075
 -0.070
 -0.070
 -0.095
 -0.115
 -0.140
 -0.160
 -0.155
 -0.165
 -0.185
 -0.220
 -0.225
 -0.235
 -0.225
 -0.215
 -0.220
 -0.230
 -0.250
 -0.265
 -0.280
 -0.265
 -0.265
 -0.285
 -0.280
 -0.275
 -0.275
 -0.275
 -0.295
 -0.305
 -0.320
 -0.320
 -0.315
 -0.290
 -0.290
 -0.310
 -0.325
 -0.330
 -0.325
 -0.305
 -0.320
 -0.315
 -0.330
 -0.325
 -0.330
 -0.320
 -0.340
 -0.330
 -0.335
 -0.345
 -0.350
 -0.320
 -0.335
 -0.355
 -0.350
 -0.385
 -0.385
 -0.375
 -0.370
 -0.370
 -0.360
 -0.365
 -0.370
 -0.350
 -0.380
 -0.385
 -0.405
 -0.425
 -0.430
 -0.430
 -0.450
 -0.465
 -0.490
 -0.500
 -0.490
 -0.455
 -0.430
 -0.360
 -0.240
 -0.120
  0.000
  0.125
  0.220
  0.280
  0.410
  0.555
  0.760
  0.970
  1.155
  1.305
  1.440
  1.565
  1.680
  1.795
  1.900
  2.000
  2.085
  2.140
  2.185
  2.215
  2.225
  2.170
  2.070
  1.905
  1.730
  1.505
  1.225
  0.945
  0.660
  0.385
  0.160
 -0.025
 -0.190
 -0.330
 -0.475
 -0.595
 -0.675
 -0.710
 -0.740
 -0.745
 -0.780
 -0.810
 -0.810
 -0.840
 -0.835
 -0.840
 -0.835
 -0.835
 -0.815
 -0.820
 -0.840
 -0.875
 -0.885
 -0.905
 -0.915
 -0.910
 -0.910
 -0.895
 -0.870
 -0.865
 -0.865
 -0.870
 -0.875
 -0.870
 -0.880
 -0.880
 -0.880
 -0.865
 -0.865
 -0.895
 -0.930
 -0.940
 -0.935
 -0.905
 -0.875
 -0.890
 -0.905
 -0.930
 -0.940
 -0.935
 -0.950
 -0.950
 -0.960
 -0.955
 -0.960
 -0.955
 -0.950
 -0.955
 -0.985
 -1.005
 -0.995
 -0.975
 -0.940
 -0.920
 -0.935
 -0.950
 -0.970
 -0.975
 -0.975
 -0.960
 -0.950
 -0.935
 -0.925
 -0.905
 -0.890
 -0.880
 -0.870
 -0.865
 -0.860
 -0.850
 -0.855
 -0.845
 -0.835
 -0.810
 -0.775
 -0.765
 -0.780
 -0.795
 -0.810
 -0.790
 -0.745
 -0.710
 -0.695
 -0.695
 -0.695
 -0.695
 -0.660
 -0.625
 -0.590
 -0.595
 -0.575
 -0.545
 -0.510
 -0.490
 -0.490
 -0.510
 -0.540
 -0.550
 -0.520
 -0.480
 -0.450
 -0.445
 -0.430
 -0.415
 -0.425
 -0.420
 -0.420
 -0.405
 -0.405
 -0.385
 -0.385
 -0.370
 -0.400
 -0.405
 -0.410
 -0.410
 -0.385
 -0.350
 -0.340
 -0.340
 -0.350
 -0.375
 -0.355
 -0.365
 -0.385
 -0.370
 -0.360
 -0.370
 -0.350
 -0.360
 -0.365
 -0.360
 -0.365
 -0.365
 -0.335
 -0.320
 -0.325
 -0.335
 -0.345
 -0.345
 -0.335
 -0.320
 -0.330
 -0.330
 -0.350
 -0.340
 -0.335
 -0.305
 -0.315
 -0.340
 -0.375
 -0.365
 -0.345
 -0.315
 -0.300
 -0.310
 -0.295
 -0.295
 -0.285
 -0.290
 -0.300
 -0.320
 -0.345
 -0.345
 -0.340
 -0.320
 -0.325
 -0.305
 -0.320
 -0.340
 -0.335
 -0.330
 -0.330
 -0.340
 -0.320
 -0.325
 -0.300
 -0.320
 -0.330
 -0.340
 -0.360
 -0.340
 -0.330
 -0.310
 -0.295
 -0.310
 -0.340
 -0.370
 -0.355
 -0.330
 -0.305
 -0.310
 -0.320
 -0.325
 -0.340
 -0.320
 -0.330
 -0.335
 -0.350
 -0.360
 -0.345
 -0.330
 -0.315
 -0.325
 -0.335
 -0.340
 -0.330
 -0.305
 -0.295
 -0.305
 -0.310
 -0.325
 -0.335
 -0.330
 -0.335
 -0.350
 -0.345
 -0.335
 -0.335
 -0.315
 -0.315
 -0.315
 -0.330
 -0.345
 -0.345
 -0.330
 -0.325
 -0.330
 -0.320
 -0.315
 -0.315
 -0.320
 -0.345
 -0.355
 -0.375
 -0.360
 -0.350
 -0.345
 -0.325
 -0.315
 -0.315
 -0.330
 -0.330
 -0.320
 -0.295
 -0.285
 -0.290
 -0.300
 -0.295
 -0.285
 -0.270
 -0.265
 -0.260
 -0.245
 -0.225
 -0.205
 -0.190
 -0.200
 -0.215
 -0.235
 -0.235
 -0.225
 -0.215
 -0.225
 -0.255
 -0.270
 -0.265
 -0.270
 -0.295
 -0.335
 -0.335
 -0.340
 -0.335
 -0.330
 -0.340
 -0.340
 -0.340
 -0.385
 -0.380
 -0.365
 -0.355
 -0.355
 -0.365
 -0.375
 -0.380
 -0.395
 -0.390
 -0.400
 -0.415
 -0.410
 -0.410
 -0.415
 -0.410
 -0.410
 -0.435
 -0.425
 -0.435
 -0.415
 -0.430
 -0.425
 -0.455
 -0.440
 -0.420
 -0.385
 -0.365
 -0.345
 -0.335
 -0.330
 -0.320
 -0.325
 -0.335
 -0.340
 -0.330
 -0.335
 -0.320
 -0.315
 -0.305
 -0.310
 -0.320
 -0.335
 -0.320
 -0.305
 -0.305
 -0.290
 -0.290
 -0.290
 -0.270
 -0.275
 -0.280
 -0.300
 -0.345
 -0.400
 -0.430
 -0.445
 -0.425
 -0.395
 -0.380
 -0.350
 -0.300
 -0.240
 -0.210
 -0.165
 -0.150
 -0.090
  0.065
  0.285
  0.450
  0.480
  0.410
  0.295
  0.190
  0.060
 -0.035
 -0.095
 -0.160
 -0.190
 -0.210
 -0.205
 -0.200
 -0.200
 -0.205
 -0.200
 -0.185
 -0.190
 -0.175
 -0.170
 -0.175
 -0.180
 -0.180
 -0.165
 -0.160
 -0.160
 -0.175
 -0.180
 -0.170
 -0.150
 -0.125
 -0.120
 -0.145
 -0.150
 -0.150
 -0.140
 -0.135
 -0.135
 -0.155
 -0.165
 -0.130
 -0.125
 -0.095
 -0.105
 -0.095
 -0.105
 -0.100
 -0.075
 -0.075
 -0.065
 -0.065
 -0.070
 -0.055
 -0.030
 -0.010
 -0.005
 -0.005
 -0.005
 -0.015
  0.000
  0.000
  0.005
  0.030
  0.045
  0.055
  0.060
  0.050
  0.045
  0.020
  0.030
  0.050
  0.095
  0.070
  0.095
  0.075
  0.080
  0.090
  0.080
  0.060
  0.085
  0.090
  0.090
  0.095
  0.120
  0.130
  0.125
  0.110
  0.100
  0.100
  0.100
  0.090
  0.085
  0.065
  0.055
  0.060
  0.065
  0.055
  0.055
  0.025
  0.015
  0.000
  0.005
 -0.010
 -0.010
 -0.015
 -0.040
 -0.050
 -0.060
 -0.080
 -0.100
 -0.115
 -0.120
 -0.115
 -0.105
 -0.105
 -0.115
 -0.130
 -0.130
 -0.135
 -0.130
 -0.135
 -0.130
 -0.150
 -0.150
 -0.160
 -0.150
 -0.150
 -0.165
 -0.170
 -0.175
 -0.180
 -0.160
 -0.155
 -0.175
 -0.200
 -0.235
 -0.215
 -0.205
 -0.200
 -0.190
 -0.205
 -0.195
 -0.175
 -0.190
 -0.200
 -0.225
 -0.235
 -0.235
 -0.220
 -0.195
 -0.200
 -0.210
 -0.225
 -0.235
 -0.235
 -0.235
 -0.240
 -0.225
 -0.240
 -0.270
 -0.290
 -0.335
 -0.385
 -0.400
 -0.400
 -0.370
 -0.330
 -0.260
 -0.145
 -0.030
  0.080
  0.175
  0.265
  0.355
  0.455
  0.600
  0.765
  0.950
  1.170
  1.360
  1.540
  1.690
  1.835
  1.955
  2.095
  2.260
  2.365
  2.425
  2.455
  2.495
  2.510
  2.480
  2.370
  2.175
  1.905
  1.600
  1.265
  0.895
  0.530
  0.195
 -0.025
 -0.175
 -0.285
 -0.400
 -0.505
 -0.585
 -0.625
 -0.655
 -0.660
 -0.670
 -0.660
 -0.670
 -0.690
 -0.720
 -0.730
 -0.725
 -0.725
 -0.715
 -0.715
 -0.740
 -0.725
 -0.740
 -0.750
 -0.750
 -0.770
 -0.785
 -0.770
 -0.740
 -0.735
 -0.710
 -0.730
 -0.745
 -0.765
 -0.775
 -0.780
 -0.785
 -0.785
 -0.785
 -0.780
 -0.780
 -0.790
 -0.815
 -0.840
 -0.860
 -0.830
 -0.830
 -0.835
 -0.850
 -0.875
 -0.890
 -0.890
 -0.885
 -0.875
 -0.855
 -0.855
 -0.865
 -0.865
 -0.865
 -0.870
 -0.875
 -0.880
 -0.870
 -0.850
 -0.835
 -0.820
 -0.820
 -0.825
 -0.820
 -0.795
 -0.790
 -0.775
 -0.775
 -0.775
 -0.780
 -0.780
 -0.765
 -0.740
 -0.720
 -0.715
 -0.690
 -0.665
 -0.640
 -0.635
 -0.625
 -0.625
 -0.600
 -0.565
 -0.520
 -0.500
 -0.495
 -0.500
 -0.505
 -0.475
 -0.435
 -0.420
 -0.410
 -0.410
 -0.410
 -0.395
 -0.395
 -0.380
 -0.375
 -0.370
 -0.360
 -0.355
 -0.345
 -0.340
 -0.355
 -0.375
 -0.370
 -0.365
 -0.335
 -0.325
 -0.330
 -0.345
 -0.340
 -0.315
 -0.310
 -0.285
 -0.295
 -0.290
 -0.305
 -0.310
 -0.320
 -0.335
 -0.335
 -0.335
 -0.350
 -0.335
 -0.320
 -0.280
 -0.300
 -0.305
 -0.310
 -0.310
 -0.295
 -0.300
 -0.315
 -0.315
 -0.330
 -0.310
 -0.320
 -0.340
 -0.340
 -0.320
 -0.315
 -0.300
 -0.295
 -0.300
 -0.290
 -0.295
 -0.320
 -0.325
 -0.305
 -0.280
 -0.280
 -0.290
 -0.310
 -0.345
 -0.310
 -0.295
 -0.295
 -0.305
 -0.335
 -0.335
 -0.320
 -0.320
 -0.310
 -0.335
 -0.330
 -0.325
 -0.305
 -0.295
 -0.295
 -0.300
 -0.330
 -0.325
 -0.325
 -0.305
 -0.305
 -0.310
 -0.340
 -0.370
 -0.360
 -0.325
 -0.275
 -0.275
 -0.300
 -0.305
 -0.280
 -0.275
 -0.295
 -0.305
 -0.325
 -0.335
 -0.325
 -0.300
 -0.290
 -0.285
 -0.305
 -0.315
 -0.350
 -0.340
 -0.305
 -0.290
 -0.270
 -0.300
 -0.305
 -0.280
 -0.295
 -0.355
 -0.350
 -0.340
 -0.320
 -0.300
 -0.290
 -0.315
 -0.330
 -0.325
 -0.320
 -0.310
 -0.305
 -0.280
 -0.285
 -0.290
 -0.295
 -0.315
 -0.335
 -0.370
 -0.320
 -0.305
 -0.325
 -0.305
 -0.305
 -0.300
 -0.315
 -0.320
 -0.305
 -0.290
 -0.280
 -0.270
 -0.245
 -0.225
 -0.230
 -0.215
 -0.200
 -0.210
 -0.215
 -0.195
 -0.200
 -0.215
 -0.240
 -0.255
 -0.280
 -0.290
 -0.270
 -0.265
 -0.250
 -0.255
 -0.255
 -0.280
 -0.290
 -0.320
 -0.325
 -0.335
 -0.335
 -0.315
 -0.320
 -0.330
 -0.380
 -0.415
 -0.450
 -0.455
 -0.420
 -0.390
 -0.380
 -0.395
 -0.430
 -0.430
 -0.415
 -0.425
 -0.415
 -0.425
 -0.405
 -0.395
 -0.395
 -0.390
 -0.420
 -0.440
 -0.445
 -0.430
 -0.420
 -0.400
 -0.385
 -0.365
 -0.365
 -0.370
 -0.360
 -0.350
 -0.345
 -0.345
 -0.335
 -0.330
 -0.320
 -0.320
 -0.320
 -0.320
 -0.300
 -0.300
 -0.280
 -0.265
 -0.275
 -0.290
 -0.310
 -0.310
 -0.310
 -0.305
 -0.320
 -0.335
 -0.365
 -0.395
 -0.405
 -0.435
 -0.445
 -0.445
 -0.430
 -0.390
 -0.330
 -0.275
 -0.225
 -0.200
 -0.180
 -0.140
 -0.090
  0.000
  0.135
  0.300
  0.405
  0.440
  0.375
  0.320
  0.215
  0.090
 -0.005
 -0.070
 -0.105
 -0.145
 -0.170
 -0.215
 -0.255
 -0.260
 -0.240
 -0.225
 -0.225
 -0.215
 -0.220
 -0.215
 -0.205
 -0.210
 -0.205
 -0.225
 -0.235
 -0.230
 -0.215
 -0.180
 -0.185
 -0.200
 -0.205
 -0.185
 -0.175
 -0.175
 -0.170
 -0.170
 -0.160
 -0.130
 -0.090
 -0.080
 -0.105
 -0.125
 -0.135
 -0.130
 -0.110
 -0.085
 -0.065
 -0.080
 -0.115
 -0.125
 -0.105
 -0.075
 -0.035
 -0.030
 -0.025
 -0.015
 -0.010
 -0.005
 -0.005
 -0.035
 -0.060
 -0.055
 -0.035
  0.010
  0.020
  0.025
  0.025
  0.030
  0.030
  0.035
  0.035
  0.045
  0.030
  0.035
  0.040
  0.055
  0.055
  0.035
  0.025
  0.040
  0.050
  0.070
  0.085
  0.100
  0.085
  0.100
  0.125
  0.125
  0.120
  0.110
  0.115
  0.115
  0.125
  0.130
  0.120
  0.100
  0.085
  0.090
  0.105
  0.105
  0.115
  0.100
  0.095
  0.105
  0.100
  0.065
  0.060
  0.040
  0.035
  0.020
  0.025
  0.025
  0.025
  0.015
 -0.015
 -0.035
 -0.060
 -0.050
 -0.025
 -0.035
 -0.055
 -0.055
 -0.060
 -0.085
 -0.095
 -0.130
 -0.130
 -0.125
 -0.080
 -0.075
 -0.090
 -0.120
 -0.120
 -0.120
 -0.125
 -0.110
 -0.095
 -0.095
 -0.110
 -0.125
 -0.125
 -0.135
 -0.140
 -0.135
 -0.150
 -0.150
 -0.145
 -0.135
 -0.145
 -0.160
 -0.180
 -0.175
 -0.170
 -0.160
 -0.150
 -0.165
 -0.175
 -0.180
 -0.175
 -0.175
 -0.195
 -0.210
 -0.215
 -0.225
 -0.195
 -0.180
 -0.170
 -0.190
 -0.220
 -0.250
 -0.255
 -0.290
 -0.320
 -0.350
 -0.365
 -0.330
 -0.295
 -0.275
 -0.230
 -0.175
 -0.070
  0.050
  0.170
  0.295
  0.375
  0.480
  0.625
  0.840
  1.070
  1.285
  1.455
  1.605
  1.760
  1.895
  2.040
  2.150
  2.260
  2.350
  2.420
  2.480
  2.535
  2.535
  2.480
  2.355
  2.155
  1.920
  1.645
  1.315
  0.960
  0.625
  0.340
  0.120
 -0.025
 -0.165
 -0.290
 -0.425
 -0.495
 -0.550
 -0.530
 -0.530
 -0.525
 -0.535
 -0.550
 -0.560
 -0.570
 -0.595
 -0.605
 -0.630
 -0.640
 -0.635
 -0.625
 -0.640
 -0.650
 -0.685
 -0.705
 -0.715
 -0.700
 -0.675
 -0.690
 -0.695
 -0.690
 -0.665
 -0.655
 -0.635
 -0.640
 -0.665
 -0.685
 -0.690
 -0.675
 -0.670
 -0.690
 -0.715
 -0.740
 -0.730
 -0.700
 -0.695
 -0.690
 -0.720
 -0.745
 -0.755
 -0.750
 -0.750
 -0.745
 -0.760
 -0.755
 -0.745
 -0.740
 -0.720
 -0.730
 -0.740
 -0.745
 -0.735
 -0.705
 -0.700
 -0.705
 -0.715
 -0.725
 -0.725
 -0.720
 -0.720
 -0.705
 -0.695
 -0.695
 -0.660
 -0.640
 -0.625
 -0.630
 -0.625
 -0.635
 -0.610
 -0.575
 -0.555
 -0.540
 -0.540
 -0.545
 -0.515
 -0.500
 -0.490
 -0.475
 -0.455
 -0.450
 -0.445
 -0.410
 -0.385
 -0.370
 -0.355
 -0.360
 -0.320
 -0.295
 -0.285
 -0.280
 -0.265
 -0.265
 -0.260
 -0.250
 -0.240
 -0.240
 -0.215
 -0.220
 -0.190
 -0.190
 -0.190
 -0.195
 -0.200
 -0.200
 -0.165
 -0.145
 -0.125
 -0.125
 -0.145
 -0.170
 -0.160
 -0.145
 -0.125
 -0.115
 -0.120
 -0.150
 -0.160
 -0.140
 -0.115
 -0.100
 -0.110
 -0.110
 -0.085
 -0.085
 -0.070
 -0.090
 -0.085
 -0.095
 -0.075
 -0.075
 -0.075
 -0.090
 -0.085
 -0.070
 -0.055
 -0.040
 -0.060
 -0.080
 -0.080
 -0.070
 -0.055
 -0.040
 -0.030
 -0.030
 -0.040
 -0.070
 -0.070
 -0.070
 -0.060
 -0.070
 -0.090
 -0.090
 -0.110
 -0.085
 -0.080
 -0.075
 -0.075
 -0.075
 -0.050
 -0.025
 -0.025
 -0.040
 -0.075
 -0.095
 -0.110
 -0.110
 -0.090
 -0.055
 -0.030
 -0.020
 -0.035
 -0.030
 -0.015
 -0.030
 -0.035
 -0.045
 -0.050
 -0.050
 -0.050
 -0.060
 -0.095
 -0.095
 -0.080
 -0.080
 -0.040
 -0.030
 -0.025
 -0.045
 -0.065
 -0.065
 -0.075
 -0.070
 -0.065
 -0.065
 -0.045
 -0.025
 -0.005
 -0.015
 -0.030
 -0.060
 -0.070
 -0.065
 -0.060
 -0.045
 -0.030
 -0.025
 -0.010
 -0.020
 -0.020
 -0.025
 -0.020
 -0.020
 -0.010
 -0.020
  0.010
  0.010
 -0.005
 -0.045
 -0.030
 -0.015
 -0.025
 -0.015
 -0.040
 -0.045
 -0.025
 -0.010
 -0.005
 -0.005
 -0.015
 -0.025
 -0.040
 -0.015
 -0.010
 -0.010
  0.005
  0.000
  0.020
  0.030
  0.025
  0.025
  0.015
  0.030
  0.030
  0.045
  0.045
  0.065
  0.075
  0.075
  0.070
  0.080
  0.085
  0.100
  0.105
  0.120
  0.120
  0.145
  0.145
  0.135
  0.120
  0.110
  0.120
  0.120
  0.100
  0.100
  0.070
  0.065
  0.060
  0.030
  0.025
  0.015
  0.010
  0.000
  0.010
  0.010
  0.015
  0.020
  0.010
 -0.010
 -0.030
 -0.020
 -0.015
  0.000
  0.000
  0.005
 -0.025
 -0.010
 -0.025
 -0.040
 -0.060
 -0.080
 -0.075
 -0.070
 -0.070
 -0.060
 -0.085
 -0.090
 -0.075
 -0.060
 -0.035
 -0.045
 -0.060
 -0.075
 -0.080
 -0.055
 -0.030
 -0.035
 -0.040
 -0.030
 -0.030
 -0.015
  0.005
  0.015
  0.030
  0.020
  0.035
  0.035
  0.020
  0.030
  0.040
  0.040
  0.050
  0.050
  0.055
  0.060
  0.050
  0.045
  0.055
  0.065
  0.065
  0.055
  0.030
  0.005
  0.000
 -0.015
 -0.030
 -0.080
 -0.110
 -0.130
 -0.090
 -0.040
  0.005
  0.050
  0.065
  0.105
  0.115
  0.150
  0.180
  0.245
  0.305
  0.425
  0.605
  0.740
  0.800
  0.770
  0.735
  0.670
  0.595
  0.490
  0.380
  0.285
  0.195
  0.140
  0.120
  0.105
  0.115
  0.115
  0.110
  0.085
  0.095
  0.090
  0.095
  0.100
  0.100
  0.075
  0.085
  0.090
  0.100
  0.090
  0.100
  0.085
  0.085
  0.095
  0.100
  0.105
  0.100
  0.110
  0.110
  0.130
  0.120
  0.120
  0.105
  0.105
  0.120
  0.130
  0.135
  0.145
  0.145
  0.130
  0.120
  0.130
  0.135
  0.135
  0.125
  0.115
  0.120
  0.135
  0.145
  0.145
  0.125
  0.130
  0.155
  0.190
  0.215
  0.220
  0.190
  0.190
  0.190
  0.205
  0.210
  0.195
  0.180
  0.175
  0.200
  0.225
  0.260
  0.265
  0.245
  0.215
  0.230
  0.225
  0.245
  0.245
  0.220
  0.240
  0.245
  0.245
  0.235
  0.210
  0.200
  0.190
  0.200
  0.220
  0.235
  0.240
  0.225
  0.210
  0.195
  0.210
  0.215
  0.235
  0.215
  0.195
  0.220
  0.230
  0.220
  0.195
  0.175
  0.130
  0.115
  0.120
  0.125
  0.135
  0.110
  0.065
  0.060
  0.050
  0.065
  0.070
  0.055
  0.050
  0.045
  0.035
  0.030
  0.015
  0.000
 -0.035
 -0.040
 -0.065
 -0.065
 -0.080
 -0.085
 -0.080
 -0.060
 -0.065
 -0.065
 -0.075
 -0.080
 -0.100
 -0.110
 -0.115
 -0.100
 -0.100
 -0.120
 -0.150
 -0.155
 -0.150
 -0.140
 -0.135
 -0.140
 -0.135
 -0.130
 -0.160
 -0.185
 -0.205
 -0.220
 -0.215
 -0.205
 -0.195
 -0.205
 -0.200
 -0.210
 -0.225
 -0.210
 -0.210
 -0.225
 -0.245
 -0.255
 -0.260
 -0.250
 -0.260
 -0.250
 -0.250
 -0.250
 -0.260
 -0.250
 -0.260
 -0.280
 -0.325
 -0.370
 -0.420
 -0.445
 -0.440
 -0.435
 -0.390
 -0.365
 -0.335
 -0.265
 -0.130
  0.000
  0.115
  0.210
  0.295
  0.385
  0.515
  0.690
  0.870
  1.040
  1.195
  1.340
  1.470
  1.640
  1.740
  1.860
  1.955
  2.095
  2.210
  2.315
  2.380
  2.425
  2.465
  2.455
  2.410
  2.270
  2.070
  1.820
  1.530
  1.230
  0.930
  0.680
  0.425
  0.165
 -0.055
 -0.205
 -0.320
 -0.425
 -0.535
 -0.625
 -0.655
 -0.650
 -0.670
 -0.690
 -0.720
 -0.720
 -0.715
 -0.710
 -0.710
 -0.715
 -0.725
 -0.740
 -0.760
 -0.750
 -0.745
 -0.760
 -0.780
 -0.785
 -0.795
 -0.790
 -0.795
 -0.805
 -0.810
 -0.830
 -0.825
 -0.815
 -0.785
 -0.785
 -0.760
 -0.755
 -0.770
 -0.765
 -0.760
 -0.770
 -0.790
 -0.820
 -0.835
 -0.835
 -0.820
 -0.825
 -0.845
 -0.855
 -0.865
 -0.870
 -0.865
 -0.855
 -0.870
 -0.875
 -0.880
 -0.875
 -0.875
 -0.885
 -0.920
 -0.945
 -0.940
 -0.930
 -0.905
 -0.885
 -0.885
 -0.905
 -0.940
 -0.930
 -0.930
 -0.915
 -0.920
 -0.910
 -0.915
 -0.900
 -0.900
 -0.880
 -0.855
 -0.860
 -0.865
 -0.880
 -0.865
 -0.840
 -0.825
 -0.815
 -0.805
 -0.805
 -0.780
 -0.760
 -0.755
 -0.760
 -0.755
 -0.740
 -0.705
 -0.685
 -0.670
 -0.650
 -0.655
 -0.645
 -0.645
 -0.635
 -0.630
 -0.630
 -0.615
 -0.585
 -0.530
 -0.475
 -0.465
 -0.470
 -0.470
 -0.465
 -0.465
 -0.440
 -0.425
 -0.430
 -0.415
 -0.400
 -0.390
 -0.370
 -0.390
 -0.400
 -0.420
 -0.400
 -0.370
 -0.360
 -0.365
 -0.370
 -0.375
 -0.360
 -0.370
 -0.360
 -0.375
 -0.350
 -0.335
 -0.315
 -0.285
 -0.270
 -0.290
 -0.315
 -0.310
 -0.320
 -0.295
 -0.290
 -0.285
 -0.280
 -0.295
 -0.295
 -0.300
 -0.300
 -0.295
 -0.315
 -0.320
 -0.300
 -0.275
 -0.240
 -0.230
 -0.240
 -0.250
 -0.250
 -0.250
 -0.245
 -0.250
 -0.255
 -0.265
 -0.250
 -0.210
 -0.195
 -0.190
 -0.210
 -0.230
 -0.225
 -0.210
 -0.190
 -0.200
 -0.200
 -0.205
 -0.200
 -0.175
 -0.165
 -0.170
 -0.185
 -0.185
 -0.170
 -0.150
 -0.155
 -0.160
 -0.165
 -0.190
 -0.205
 -0.190
 -0.175
 -0.155
 -0.180
 -0.175
 -0.150
 -0.125
 -0.120
 -0.130
 -0.150
 -0.185
 -0.190
 -0.165
 -0.110
 -0.100
 -0.090
 -0.100
 -0.125
 -0.145
 -0.145
 -0.140
 -0.150
 -0.160
 -0.155
 -0.150
 -0.140
 -0.140
 -0.145
 -0.150
 -0.140
 -0.135
 -0.100
 -0.090
 -0.075
 -0.090
 -0.085
 -0.055
 -0.055
 -0.065
 -0.075
 -0.075
 -0.055
 -0.035
 -0.010
 -0.015
 -0.035
 -0.065
 -0.060
 -0.060
 -0.040
 -0.015
 -0.015
 -0.025
 -0.040
 -0.020
 -0.025
 -0.045
 -0.075
 -0.075
 -0.055
 -0.025
 -0.005
  0.005
 -0.020
 -0.050
 -0.045
 -0.030
 -0.005
  0.000
  0.020
  0.020
  0.025
  0.030
  0.045
  0.035
  0.040
  0.020
  0.020
  0.010
  0.015
  0.035
  0.045
  0.035
  0.050
  0.080
  0.090
  0.095
  0.090
  0.095
  0.130
  0.145
  0.165
  0.150
  0.150
  0.155
  0.175
  0.180
  0.190
  0.200
  0.195
  0.160
  0.155
  0.135
  0.160
  0.150
  0.115
  0.110
  0.120
  0.100
  0.100
  0.085
  0.050
  0.020
  0.005
  0.000
  0.025
  0.030
  0.015
  0.000
  0.010
  0.010
  0.040
  0.030
  0.000
 -0.020
 -0.030
 -0.025
 -0.005
 -0.015
 -0.040
 -0.050
 -0.045
 -0.045
 -0.040
 -0.050
 -0.040
 -0.040
 -0.045
 -0.055
 -0.055
 -0.060
 -0.055
 -0.065
 -0.050
 -0.025
 -0.005
  0.005
  0.040
  0.075
  0.070
  0.065
  0.080
  0.085
  0.110
  0.110
  0.130
  0.115
  0.130
  0.120
  0.115
  0.110
  0.100
  0.100
  0.135
  0.155
  0.170
  0.160
  0.135
  0.125
  0.115
  0.090
  0.060
  0.060
  0.055
  0.080
  0.105
  0.135
  0.175
  0.195
  0.235
  0.290
  0.325
  0.365
  0.405
  0.495
  0.660
  0.870
  0.990
  0.990
  0.960
  0.890
  0.775
  0.635
  0.515
  0.405
  0.345
  0.285
  0.255
  0.245
  0.265
  0.275
  0.260
  0.235
  0.230
  0.235
  0.255
  0.250
  0.235
  0.230
  0.255
  0.290
  0.300
  0.280
  0.290
  0.275
  0.270
  0.305
  0.325
  0.325
  0.325
  0.340
  0.355
  0.335
  0.325
  0.330
  0.325
  0.340
  0.350
  0.370
  0.380
  0.395
  0.380
  0.360
  0.355
  0.370
  0.400
  0.440
  0.450
  0.440
  0.410
  0.415
  0.415
  0.410
  0.415
  0.420
  0.435
  0.435
  0.445
  0.435
  0.425
  0.425
  0.415
  0.400
  0.440
  0.455
  0.445
  0.455
  0.450
  0.465
  0.450
  0.445
  0.420
  0.435
  0.440
  0.475
  0.480
  0.485
  0.480
  0.470
  0.460
  0.460
  0.460
  0.450
  0.460
  0.465
  0.460
  0.455
  0.460
  0.450
  0.435
  0.405
  0.390
  0.395
  0.400
  0.395
  0.395
  0.405
  0.385
  0.380
  0.380
  0.355
  0.335
  0.330
  0.330
  0.320
  0.330
  0.325
  0.305
  0.290
  0.270
  0.250
  0.250
  0.230
  0.210
  0.200
  0.195
  0.205
  0.210
  0.170
  0.140
  0.140
  0.125
  0.120
  0.125
  0.120
  0.100
  0.090
  0.065
  0.080
  0.080
  0.085
  0.080
  0.060
  0.055
  0.070
  0.080
  0.055
  0.035
  0.025
  0.025
  0.040
  0.050
  0.050
  0.055
  0.030
  0.010
  0.015
  0.010
  0.000
 -0.020
 -0.015
 -0.015
  0.000
  0.005
 -0.020
 -0.040
 -0.040
 -0.075
 -0.060
 -0.045
 -0.040
 -0.065
 -0.080
 -0.090
 -0.065
 -0.060
 -0.065
 -0.070
 -0.080
 -0.095
 -0.080
 -0.055
 -0.060
 -0.090
 -0.110
 -0.150
 -0.195
 -0.220
 -0.255
 -0.265
 -0.255
 -0.240
 -0.210
 -0.160
 -0.085
  0.020
  0.150
  0.255
  0.370
  0.475
  0.575
  0.720
  0.915
  1.080
  1.275
  1.430
  1.540
  1.675
  1.805
  1.920
  2.035
  2.130
  2.225
  2.295
  2.360
  2.435
  2.480
  2.480
  2.395
  2.240
  1.995
  1.735
  1.450
  1.100
  0.735
  0.390
  0.100
 -0.095
 -0.205
 -0.335
 -0.460
 -0.575
 -0.625
 -0.650
 -0.645
 -0.655
 -0.680
 -0.690
 -0.685
 -0.710
 -0.695
 -0.690
 -0.705
 -0.710
 -0.730
 -0.760
 -0.755
 -0.765
 -0.775
 -0.800
 -0.815
 -0.790
 -0.750
 -0.710
 -0.720
 -0.740
 -0.760
 -0.795
 -0.790
 -0.785
 -0.795
 -0.785
 -0.780
 -0.795
 -0.795
 -0.790
 -0.815
 -0.825
 -0.850
 -0.860
 -0.860
 -0.830
 -0.835
 -0.860
 -0.875
 -0.900
 -0.895
 -0.895
 -0.875
 -0.875
 -0.895
 -0.915
 -0.930
 -0.925
 -0.915
 -0.885
 -0.885
 -0.895
 -0.875
 -0.875
 -0.900
 -0.885
 -0.885
 -0.875
 -0.850
 -0.845
 -0.835
 -0.835
 -0.850
 -0.840
 -0.815
 -0.795
 -0.780
 -0.765
 -0.760
 -0.750
 -0.720
 -0.695
 -0.675
 -0.680
 -0.655
 -0.650
 -0.630
 -0.600
 -0.595
 -0.580
 -0.570
 -0.565
 -0.530
 -0.500
 -0.495
 -0.495
 -0.500
 -0.485
 -0.455
 -0.445
 -0.435
 -0.435
 -0.425
 -0.425
 -0.400
 -0.375
 -0.380
 -0.395
 -0.395
 -0.415
 -0.390
 -0.365
 -0.345
 -0.350
 -0.340
 -0.370
 -0.360
 -0.365
 -0.340
 -0.355
 -0.350
 -0.335
 -0.305
 -0.295
 -0.320
 -0.325
 -0.315
 -0.315
 -0.285
 -0.275
 -0.295
 -0.310
 -0.310
 -0.310
 -0.285
 -0.280
 -0.270
 -0.270
 -0.275
 -0.285
 -0.280
 -0.270
 -0.285
 -0.285
 -0.285
 -0.290
 -0.265
 -0.265
 -0.250
 -0.265
 -0.275
 -0.280
 -0.255
 -0.230
 -0.245
 -0.265
 -0.275
 -0.285
 -0.265
 -0.260
 -0.275
 -0.295
 -0.295
 -0.290
 -0.265
 -0.250
 -0.245
 -0.245
 -0.275
 -0.290
 -0.285
 -0.275
 -0.265
 -0.260
 -0.255
 -0.265
 -0.260
 -0.280
 -0.280
 -0.285
 -0.265
 -0.270
 -0.280
 -0.280
 -0.285
 -0.295
 -0.305
 -0.330
 -0.320
 -0.305
 -0.320
 -0.320
 -0.310
 -0.310
 -0.295
 -0.260
 -0.260
 -0.255
 -0.270
 -0.300
 -0.295
 -0.305
 -0.280
 -0.280
 -0.295
 -0.280
 -0.275
 -0.260
 -0.270
 -0.290
 -0.295
 -0.310
 -0.290
 -0.260
 -0.245
 -0.265
 -0.290
 -0.310
 -0.290
 -0.310
 -0.295
 -0.305
 -0.310
 -0.320
 -0.305
 -0.290
 -0.300
 -0.310
 -0.320
 -0.300
 -0.295
 -0.275
 -0.285
 -0.300
 -0.285
 -0.285
 -0.265
 -0.250
 -0.260
 -0.275
 -0.290
 -0.280
 -0.245
 -0.220
 -0.205
 -0.190
 -0.185
 -0.180
 -0.165
 -0.170
 -0.175
 -0.170
 -0.180
 -0.205
 -0.205
 -0.215
 -0.225
 -0.245
 -0.245
 -0.245
 -0.245
 -0.255
 -0.285
 -0.315
 -0.335
 -0.340
 -0.320
 -0.300
 -0.310
 -0.330
 -0.340
 -0.350
 -0.355
 -0.340
 -0.340
 -0.350
 -0.355
 -0.365
 -0.355
 -0.360
 -0.375
 -0.390
 -0.415
 -0.415
 -0.385
 -0.370
 -0.375
 -0.400
 -0.410
 -0.415
 -0.400
 -0.390
 -0.385
 -0.380
 -0.375
 -0.345
 -0.330
 -0.310
 -0.315
 -0.310
 -0.320
 -0.310
 -0.285
 -0.270
 -0.255
 -0.255
 -0.265
 -0.270
 -0.285
 -0.250
 -0.250
 -0.250
 -0.255
 -0.245
 -0.235
 -0.240
 -0.230
 -0.250
 -0.265
 -0.260
 -0.250
 -0.235
 -0.250
 -0.285
 -0.345
 -0.395
 -0.380
 -0.355
 -0.310
 -0.270
 -0.240
 -0.185
 -0.125
 -0.105
 -0.075
 -0.005
  0.125
  0.320
  0.525
  0.605
  0.570
  0.520
  0.450
  0.335
  0.190
  0.065
 -0.020
 -0.080
 -0.115
 -0.135
 -0.135
 -0.145
 -0.145
 -0.145
 -0.140
 -0.135
 -0.115
 -0.105
 -0.110
 -0.110
 -0.125
 -0.115
 -0.130
 -0.110
 -0.100
 -0.090
 -0.090
 -0.075
 -0.065
 -0.070
 -0.060
 -0.060
 -0.055
 -0.045
 -0.035
 -0.030
 -0.015
 -0.010
 -0.020
 -0.010
 -0.010
  0.000
  0.010
  0.020
  0.010
  0.015
  0.020
  0.035
  0.025
  0.025
  0.025
  0.045
  0.060
  0.090
  0.085
  0.085
  0.065
  0.060
  0.070
  0.110
  0.090
  0.110
  0.110
  0.115
  0.135
  0.130
  0.130
  0.140
  0.160
  0.180
  0.185
  0.205
  0.200
  0.205
  0.210
  0.200
  0.230
  0.265
  0.270
  0.270
  0.235
  0.205
  0.205
  0.240
  0.245
  0.255
  0.250
  0.255
  0.285
  0.290
  0.275
  0.255
  0.215
  0.225
  0.245
  0.245
  0.250
  0.220
  0.200
  0.195
  0.190
  0.210
  0.195
  0.185
  0.160
  0.135
  0.120
  0.120
  0.115
  0.125
  0.140
  0.160
  0.165
  0.150
  0.130
  0.090
  0.075
  0.095
  0.100
  0.120
  0.105
  0.090
  0.080
  0.060
  0.065
  0.085
  0.125
  0.135
  0.145
  0.145
  0.150
  0.135
  0.120
  0.120
  0.135
  0.135
  0.140
  0.135
  0.140
  0.120
  0.075
  0.060
  0.085
  0.115
  0.115
  0.095
  0.065
  0.080
  0.085
  0.080
  0.055
  0.030
  0.035
  0.050
  0.055
  0.050
  0.025
 -0.035
 -0.085
 -0.115
 -0.105
 -0.100
 -0.105
 -0.085
 -0.060
  0.045
  0.145
  0.240
  0.320
  0.420
  0.535
  0.650
  0.830
  1.015
  1.195
  1.365
  1.515
  1.635
  1.785
  1.930
  2.050
  2.140
  2.230
  2.330
  2.440
  2.530
  2.585
  2.595
  2.655
  2.645
  2.605
  2.450
  2.220
  1.935
  1.590
  1.240
  0.900
  0.605
  0.335
  0.165
  0.035
 -0.090
 -0.220
 -0.330
 -0.405
 -0.430
 -0.460
 -0.465
 -0.450
 -0.435
 -0.450
 -0.470
 -0.500
 -0.510
 -0.510
 -0.495
 -0.510
 -0.530
 -0.540
 -0.555
 -0.565
 -0.565
 -0.575
 -0.580
 -0.580
 -0.575
 -0.555
 -0.550
 -0.545
 -0.555
 -0.575
 -0.580
 -0.575
 -0.565
 -0.570
 -0.585
 -0.595
 -0.615
 -0.635
 -0.625
 -0.635
 -0.640
 -0.650
 -0.655
 -0.655
 -0.670
 -0.650
 -0.655
 -0.660
 -0.655
 -0.645
 -0.630
 -0.640
 -0.635
 -0.665
 -0.670
 -0.675
 -0.660
 -0.640
 -0.620
 -0.645
 -0.635
 -0.640
 -0.625
 -0.610
 -0.630
 -0.660
 -0.665
 -0.650
 -0.625
 -0.620
 -0.640
 -0.650
 -0.630
 -0.605
 -0.580
 -0.565
 -0.555
 -0.580
 -0.575
 -0.560
 -0.545
 -0.540
 -0.540
 -0.510
 -0.485
 -0.440
 -0.430
 -0.405
 -0.425
 -0.425
 -0.415
 -0.385
 -0.345
 -0.310
 -0.295
 -0.300
 -0.305
 -0.305
 -0.305
 -0.300
 -0.310
 -0.320
 -0.300
 -0.265
 -0.240
 -0.240
 -0.250
 -0.260
 -0.260
 -0.240
 -0.230
 -0.225
 -0.240
 -0.260
 -0.275
 -0.280
 -0.265
 -0.240
 -0.250
 -0.250
 -0.250
 -0.215
 -0.200
 -0.200
 -0.200
 -0.210
 -0.220
 -0.205
 -0.185
 -0.185
 -0.180
 -0.180
 -0.190
 -0.175
 -0.185
 -0.205
 -0.210
 -0.195
 -0.190
 -0.180
 -0.175
 -0.170
 -0.180
 -0.200
 -0.200
 -0.195
 -0.205
 -0.190
 -0.200
 -0.205
 -0.205
 -0.205
 -0.210
 -0.220
 -0.220
 -0.235
 -0.240
 -0.210
 -0.210
 -0.230
 -0.240
 -0.240
 -0.245
 -0.220
 -0.205
 -0.195
 -0.200
 -0.225
 -0.260
 -0.235
 -0.225
 -0.225
 -0.225
 -0.225
 -0.240
 -0.220
 -0.210
 -0.230
 -0.230
 -0.250
 -0.255
 -0.240
 -0.215
 -0.185
 -0.170
 -0.170
 -0.190
 -0.200
 -0.210
 -0.200
 -0.205
 -0.215
 -0.215
 -0.210
 -0.200
 -0.215
 -0.230
 -0.235
 -0.255
 -0.255
 -0.235
 -0.235
 -0.210
 -0.215
 -0.220
 -0.215
 -0.230
 -0.225
 -0.215
 -0.225
 -0.240
 -0.215
 -0.210
 -0.225
 -0.225
 -0.245
 -0.255
 -0.245
 -0.215
 -0.210
 -0.215
 -0.230
 -0.230
 -0.215
 -0.225
 -0.225
 -0.230
 -0.235
 -0.220
 -0.195
 -0.220
 -0.230
 -0.230
 -0.255
 -0.260
 -0.260
 -0.245
 -0.235
 -0.225
 -0.250
 -0.260
 -0.245
 -0.215
 -0.190
 -0.195
 -0.185
 -0.185
 -0.155
 -0.140
 -0.155
 -0.175
 -0.175
 -0.145
 -0.115
 -0.095
 -0.080
 -0.075
 -0.105
 -0.155
 -0.160
 -0.160
 -0.155
 -0.155
 -0.165
 -0.165
 -0.170
 -0.190
 -0.195
 -0.240
 -0.275
 -0.270
 -0.275
 -0.250
 -0.235
 -0.245
 -0.250
 -0.265
 -0.255
 -0.250
 -0.270
 -0.280
 -0.290
 -0.290
 -0.300
 -0.300
 -0.300
 -0.315
 -0.325
 -0.330
 -0.305
 -0.290
 -0.290
 -0.300
 -0.315
 -0.315
 -0.325
 -0.335
 -0.335
 -0.320
 -0.285
 -0.270
 -0.255
 -0.245
 -0.255
 -0.255
 -0.270
 -0.240
 -0.220
 -0.200
 -0.215
 -0.220
 -0.230
 -0.240
 -0.230
 -0.200
 -0.185
 -0.195
 -0.210
 -0.215
 -0.220
 -0.200
 -0.195
 -0.210
 -0.235
 -0.250
 -0.275
 -0.280
 -0.305
 -0.305
 -0.305
 -0.275
 -0.230
 -0.170
 -0.110
 -0.070
 -0.045
 -0.035
  0.020
  0.115
  0.250
  0.465
  0.620
  0.640
  0.575
  0.520
  0.450
  0.320
  0.160
  0.030
 -0.040
 -0.060
 -0.070
 -0.105
 -0.140
 -0.145
 -0.125
 -0.090
 -0.055
 -0.045
 -0.055
 -0.055
 -0.060
 -0.075
 -0.065
 -0.060
 -0.065
 -0.050
 -0.025
 -0.005
 -0.010
 -0.025
 -0.035
 -0.050
 -0.030
  0.015
  0.040
  0.055
  0.050
  0.030
  0.010
  0.020
  0.015
  0.020
  0.020
  0.040
  0.065
  0.050
  0.060
  0.075
  0.075
  0.090
  0.105
  0.115
  0.135
  0.135
  0.135
  0.125
  0.135
  0.155
  0.180
  0.185
  0.170
  0.160
  0.180
  0.195
  0.210
  0.210
  0.205
  0.230
  0.250
  0.260
  0.270
  0.275
  0.260
  0.250
  0.250
  0.255
  0.275
  0.305
  0.310
  0.305
  0.320
  0.320
  0.305
  0.290
  0.265
  0.275
  0.300
  0.300
  0.300
  0.280
  0.260
  0.235
  0.240
  0.265
  0.280
  0.285
  0.265
  0.240
  0.250
  0.255
  0.255
  0.235
  0.195
  0.150
  0.155
  0.175
  0.175
  0.170
  0.130
  0.080
  0.085
  0.085
  0.075
  0.090
  0.095
  0.085
  0.070
  0.050
  0.035
  0.040
  0.050
  0.060
  0.070
  0.085
  0.050
  0.025
 -0.005
 -0.010
  0.025
  0.065
  0.110
  0.135
  0.125
  0.110
  0.100
  0.105
  0.095
  0.090
  0.075
  0.065
  0.060
  0.050
  0.030
  0.020
  0.005
  0.000
  0.015
  0.040
  0.060
  0.055
  0.040
  0.040
  0.030
  0.030
  0.010
  0.005
 -0.020
 -0.030
 -0.020
 -0.005
  0.010
  0.005
 -0.030
 -0.065
 -0.105
 -0.140
 -0.170
 -0.175
 -0.195
 -0.185
 -0.175
 -0.125
 -0.050
  0.060
  0.160
  0.235
  0.355
  0.470
  0.590
  0.750
  0.920
  1.125
  1.310
  1.475
  1.625
  1.740
  1.890
  1.990
  2.085
  2.165
  2.265
  2.340
  2.395
  2.440
  2.505
  2.540
  2.530
  2.440
  2.275
  2.025
  1.775
  1.495
  1.220
  0.930
  0.650
  0.415
  0.220
  0.080
 -0.035
 -0.150
 -0.265
 -0.370
 -0.430
 -0.445
 -0.465
 -0.480
 -0.520
 -0.525
 -0.525
 -0.540
 -0.565
 -0.580
 -0.600
 -0.590
 -0.575
 -0.555
 -0.550
 -0.580
 -0.580
 -0.620
 -0.625
 -0.625
 -0.625
 -0.620
 -0.620
 -0.600
 -0.590
 -0.585
 -0.595
 -0.595
 -0.635
 -0.640
 -0.625
 -0.610
 -0.595
 -0.610
 -0.630
 -0.660
 -0.665
 -0.660
 -0.655
 -0.655
 -0.670
 -0.685
 -0.685
 -0.690
 -0.700
 -0.690
 -0.720
 -0.705
 -0.700
 -0.690
 -0.685
 -0.685
 -0.705
 -0.730
 -0.745
 -0.745
 -0.740
 -0.740
 -0.760
 -0.765
 -0.750
 -0.725
 -0.725
 -0.725
 -0.735
 -0.740
 -0.720
 -0.700
 -0.675
 -0.685
 -0.680
 -0.675
 -0.665
 -0.635
 -0.620
 -0.625
 -0.620
 -0.615
 -0.605
 -0.585
 -0.570
 -0.560
 -0.575
 -0.575
 -0.570
 -0.560
 -0.535
 -0.525
 -0.530
 -0.515
 -0.490
 -0.460
 -0.430
 -0.430
 -0.415
 -0.425
 -0.385
 -0.355
 -0.345
 -0.325
 -0.325
 -0.330
 -0.315
 -0.305
 -0.265
 -0.260
 -0.270
 -0.260
 -0.255
 -0.250
 -0.245
 -0.230
 -0.230
 -0.235
 -0.225
 -0.215
 -0.195
 -0.185
 -0.185
 -0.180
 -0.165
 -0.155
 -0.155
 -0.180
 -0.190
 -0.175
 -0.145
 -0.110
 -0.105
 -0.090
 -0.115
 -0.135
 -0.155
 -0.130
 -0.115
 -0.095
 -0.100
 -0.095
 -0.090
 -0.080
 -0.085
 -0.090
 -0.095
 -0.105
 -0.110
 -0.095
 -0.100
 -0.085
 -0.085
 -0.105
 -0.085
 -0.070
 -0.060
 -0.075
 -0.075
 -0.090
 -0.075
 -0.065
 -0.060
 -0.065
 -0.075
 -0.060
 -0.045
 -0.040
 -0.050
 -0.065
 -0.070
 -0.100
 -0.070
 -0.075
 -0.060
 -0.060
 -0.070
 -0.065
 -0.080
 -0.075
 -0.065
 -0.085
 -0.080
 -0.085
 -0.060
 -0.035
 -0.025
 -0.035
 -0.055
 -0.070
 -0.050
 -0.040
 -0.030
 -0.040
 -0.065
 -0.065
 -0.045
 -0.025
 -0.005
 -0.005
 -0.020
 -0.055
 -0.050
 -0.050
 -0.030
 -0.025
 -0.020
 -0.025
 -0.015
 -0.015
 -0.015
 -0.010
 -0.025
 -0.035
 -0.045
 -0.035
 -0.020
 -0.005
 -0.010
 -0.025
 -0.015
 -0.025
 -0.035
 -0.055
 -0.055
 -0.065
 -0.040
 -0.035
 -0.035
 -0.040
 -0.040
 -0.055
 -0.055
 -0.055
 -0.055
 -0.055
 -0.060
 -0.065
 -0.050
 -0.045
 -0.040
 -0.040
 -0.040
 -0.055
 -0.060
 -0.065
 -0.070
 -0.065
 -0.085
 -0.085
 -0.080
 -0.045
 -0.025
 -0.050
 -0.065
 -0.055
 -0.050
 -0.055
 -0.040
 -0.055
 -0.075
 -0.105
 -0.080
 -0.055
 -0.030
 -0.005
 -0.005
 -0.020
 -0.020
  0.000
  0.020
  0.045
  0.060
  0.055
  0.070
  0.065
  0.055
  0.040
  0.030
  0.015
  0.010
  0.005
  0.005
  0.020
 -0.010
 -0.050
 -0.080
 -0.085
 -0.070
 -0.050
 -0.070
 -0.080
 -0.095
 -0.105
 -0.120
 -0.125
 -0.115
 -0.120
 -0.120
 -0.105
 -0.090
 -0.100
 -0.120
 -0.140
 -0.155
 -0.160
 -0.165
 -0.185
 -0.185
 -0.180
 -0.180
 -0.190
 -0.170
 -0.155
 -0.150
 -0.170
 -0.195
 -0.225
 -0.225
 -0.205
 -0.215
 -0.205
 -0.205
 -0.195
 -0.155
 -0.140
 -0.135
 -0.140
 -0.120
 -0.105
 -0.080
 -0.065
 -0.090
 -0.110
 -0.105
 -0.110
 -0.105
 -0.085
 -0.085
 -0.090
 -0.075
 -0.080
 -0.070
 -0.075
 -0.090
 -0.085
 -0.070
 -0.055
 -0.060
 -0.055
 -0.090
 -0.130
 -0.175
 -0.225
 -0.250
 -0.230
 -0.210
 -0.175
 -0.160
 -0.145
 -0.095
 -0.065
 -0.055
 -0.045
 -0.010
  0.055
  0.130
  0.260
  0.435
  0.575
  0.635
  0.600
  0.530
  0.425
  0.310
  0.190
  0.125
  0.075
  0.040
  0.005
 -0.025
 -0.045
 -0.060
 -0.055
 -0.040
 -0.035
 -0.045
 -0.030
 -0.035
 -0.025
 -0.040
 -0.045
 -0.045
 -0.035
 -0.015
  0.015
  0.025
  0.010
  0.000
 -0.005
 -0.010
  0.000
 -0.010
 -0.005
 -0.010
 -0.005
  0.020
  0.045
  0.040
  0.000
 -0.015
 -0.025
  0.025
  0.060
  0.085
  0.075
  0.095
  0.075
  0.080
  0.085
  0.090
  0.095
  0.085
  0.080
  0.120
  0.130
  0.140
  0.140
  0.130
  0.120
  0.130
  0.135
  0.150
  0.155
  0.165
  0.155
  0.155
  0.170
  0.175
  0.190
  0.205
  0.205
  0.215
  0.210
  0.210
  0.220
  0.225
  0.225
  0.220
  0.200
  0.220
  0.245
  0.245
  0.250
  0.235
  0.235
  0.230
  0.215
  0.210
  0.200
  0.205
  0.215
  0.235
  0.250
  0.260
  0.260
  0.260
  0.255
  0.240
  0.230
  0.210
  0.205
  0.215
  0.235
  0.245
  0.225
  0.195
  0.145
  0.120
  0.125
  0.125
  0.145
  0.120
  0.125
  0.120
  0.105
  0.100
  0.075
  0.060
  0.040
  0.050
  0.060
  0.055
  0.035
  0.035
  0.020
  0.005
 -0.015
  0.000
 -0.005
 -0.015
 -0.025
 -0.035
 -0.020
 -0.030
 -0.045
 -0.055
 -0.075
 -0.075
 -0.060
 -0.035
 -0.025
 -0.040
 -0.055
 -0.035
 -0.035
 -0.030
 -0.035
 -0.055
 -0.080
 -0.080
 -0.060
 -0.045
 -0.035
 -0.060
 -0.070
 -0.105
 -0.110
 -0.120
 -0.130
 -0.135
 -0.130
 -0.110
 -0.100
 -0.085
 -0.095
 -0.120
 -0.140
 -0.155
 -0.140
 -0.115
 -0.105
 -0.105
 -0.130
 -0.115
 -0.105
 -0.115
 -0.130
 -0.155
 -0.180
 -0.185
 -0.190
 -0.205
 -0.225
 -0.260
 -0.285
 -0.260
 -0.255
 -0.255
 -0.230
 -0.155
 -0.045
  0.080
  0.195
  0.295
  0.375
  0.450
  0.535
  0.670
  0.845
  1.035
  1.195
  1.375
  1.520
  1.655
  1.775
  1.880
  1.985
  2.055
  2.135
  2.245
  2.355
  2.440
  2.485
  2.535
  2.555
  2.570
  2.560
  2.480
  2.345
  2.155
  1.950
  1.740
  1.525
  1.295
  1.000
  0.690
  0.410
  0.180
  0.040
 -0.100
 -0.235
 -0.355
 -0.440
 -0.490
 -0.505
 -0.495
 -0.505
 -0.540
 -0.565
 -0.565
 -0.565
 -0.580
 -0.590
 -0.620
 -0.635
 -0.625
 -0.605
 -0.600
 -0.615
 -0.625
 -0.645
 -0.645
 -0.645
 -0.650
 -0.650
 -0.630
 -0.635
 -0.620
 -0.615
 -0.605
 -0.610
 -0.625
 -0.625
 -0.615
 -0.580
 -0.555
 -0.570
 -0.600
 -0.630
 -0.645
 -0.645
 -0.640
 -0.650
 -0.675
 -0.670
 -0.635
 -0.625
 -0.605
 -0.620
 -0.645
 -0.655
 -0.670
 -0.685
 -0.670
 -0.675
 -0.680
 -0.690
 -0.695
 -0.685
 -0.700
 -0.715
 -0.730
 -0.750
 -0.750
 -0.725
 -0.690
 -0.675
 -0.660
 -0.665
 -0.675
 -0.680
 -0.670
 -0.690
 -0.690
 -0.690
 -0.675
 -0.650
 -0.635
 -0.650
 -0.655
 -0.665
 -0.660
 -0.640
 -0.630
 -0.610
 -0.610
 -0.575
 -0.555
 -0.545
 -0.540
 -0.550
 -0.555
 -0.565
 -0.535
 -0.505
 -0.465
 -0.445
 -0.420
 -0.420
 -0.425
 -0.410
 -0.390
 -0.360
 -0.335
 -0.330
 -0.315
 -0.295
 -0.280
 -0.285
 -0.285
 -0.290
 -0.275
 -0.260
 -0.215
 -0.215
 -0.205
 -0.215
 -0.215
 -0.205
 -0.195
 -0.190
 -0.190
 -0.175
 -0.165
 -0.145
 -0.115
 -0.120
 -0.155
 -0.180
 -0.180
 -0.160
 -0.150
 -0.150
 -0.140
 -0.145
 -0.140
 -0.115
 -0.110
 -0.115
 -0.130
 -0.155
 -0.135
 -0.140
 -0.115
 -0.095
 -0.105
 -0.105
 -0.115
 -0.105
 -0.105
 -0.125
 -0.140
 -0.145
 -0.130
 -0.115
 -0.110
 -0.105
 -0.110
 -0.115
 -0.100
 -0.095
 -0.090
 -0.100
 -0.115
 -0.120
 -0.105
 -0.090
 -0.075
 -0.085
 -0.105
 -0.150
 -0.125
 -0.100
 -0.100
 -0.110
 -0.115
 -0.125
 -0.130
 -0.110
 -0.105
 -0.090
 -0.110
 -0.135
 -0.120
 -0.095
 -0.065
 -0.060
 -0.075
 -0.105
 -0.120
 -0.105
 -0.090
 -0.100
 -0.110
 -0.130
 -0.140
 -0.120
 -0.100
 -0.105
 -0.125
 -0.130
 -0.125
 -0.120
 -0.115
 -0.115
 -0.095
 -0.100
 -0.095
 -0.080
 -0.080
 -0.100
 -0.125
 -0.145
 -0.145
 -0.135
 -0.125
 -0.095
 -0.095
 -0.095
 -0.110
 -0.105
 -0.105
 -0.110
 -0.110
 -0.095
 -0.085
 -0.090
 -0.080
 -0.105
 -0.125
 -0.145
 -0.135
 -0.105
 -0.100
 -0.080
 -0.075
 -0.090
 -0.085
 -0.080
 -0.080
 -0.095
 -0.105
 -0.135
 -0.125
 -0.125
 -0.115
 -0.100
 -0.105
 -0.105
 -0.100
 -0.110
 -0.120
 -0.125
 -0.155
 -0.170
 -0.155
 -0.140
 -0.125
 -0.100
 -0.105
 -0.105
 -0.125
 -0.145
 -0.135
 -0.130
 -0.135
 -0.130
 -0.125
 -0.100
 -0.090
 -0.100
 -0.120
 -0.140
 -0.145
 -0.125
 -0.110
 -0.100
 -0.115
 -0.085
 -0.070
 -0.060
 -0.045
 -0.055
 -0.065
 -0.040
  0.000
  0.015
  0.035
  0.040
  0.000
 -0.040
 -0.050
 -0.050
 -0.055
 -0.045
 -0.045
 -0.045
 -0.040
 -0.050
 -0.055
 -0.095
 -0.125
 -0.160
 -0.170
 -0.175
 -0.170
 -0.160
 -0.165
 -0.185
 -0.185
 -0.205
 -0.185
 -0.190
 -0.205
 -0.220
 -0.205
 -0.190
 -0.185
 -0.185
 -0.200
 -0.210
 -0.220
 -0.240
 -0.260
 -0.280
 -0.285
 -0.295
 -0.280
 -0.265
 -0.245
 -0.255
 -0.255
 -0.255
 -0.250
 -0.260
 -0.265
 -0.275
 -0.270
 -0.270
 -0.235
 -0.210
 -0.200
 -0.185
 -0.190
 -0.205
 -0.200
 -0.190
 -0.175
 -0.180
 -0.180
 -0.180
 -0.175
 -0.155
 -0.155
 -0.160
 -0.175
 -0.170
 -0.165
 -0.155
 -0.130
 -0.125
 -0.135
 -0.145
 -0.135
 -0.150
 -0.135
 -0.150
 -0.170
 -0.165
 -0.155
 -0.150
 -0.145
 -0.140
 -0.165
 -0.220
 -0.260
 -0.310
 -0.330
 -0.335
 -0.330
 -0.315
 -0.300
 -0.270
 -0.255
 -0.255
 -0.240
 -0.235
 -0.215
 -0.195
 -0.180
 -0.120
 -0.020
  0.100
  0.270
  0.445
  0.540
  0.570
  0.505
  0.445
  0.400
  0.320
  0.220
  0.145
  0.065
  0.030
 -0.005
 -0.035
 -0.060
 -0.080
 -0.105
 -0.105
 -0.065
 -0.015
  0.015
  0.015
  0.000
 -0.010
 -0.030
 -0.045
 -0.040
 -0.035
 -0.055
 -0.055
 -0.040
 -0.015
 -0.015
 -0.010
 -0.010
 -0.025
 -0.020
 -0.010
  0.000
 -0.005
 -0.015
  0.000
  0.010
  0.020
  0.035
  0.040
  0.030
  0.015
  0.010
  0.030
  0.040
  0.080
  0.090
  0.090
  0.080
  0.085
  0.095
  0.090
  0.085
  0.075
  0.095
  0.125
  0.140
  0.160
  0.160
  0.155
  0.145
  0.140
  0.140
  0.120
  0.110
  0.110
  0.140
  0.165
  0.200
  0.215
  0.200
  0.190
  0.185
  0.185
  0.185
  0.205
  0.200
  0.200
  0.205
  0.225
  0.250
  0.250
  0.250
  0.215
  0.215
  0.225
  0.260
  0.255
  0.245
  0.240
  0.230
  0.245
  0.245
  0.235
  0.215
  0.215
  0.235
  0.265
  0.280
  0.285
  0.270
  0.255
  0.250
  0.255
  0.240
  0.215
  0.210
  0.190
  0.205
  0.225
  0.220
  0.220
  0.205
  0.185
  0.175
  0.175
  0.180
  0.170
  0.135
  0.120
  0.110
  0.110
  0.100
  0.085
  0.055
  0.025
  0.045
  0.035
  0.060
  0.070
  0.055
  0.025
  0.015
  0.000
  0.000
 -0.015
 -0.040
 -0.050
 -0.060
 -0.030
 -0.010
 -0.010
 -0.050
 -0.075
 -0.065
 -0.055
 -0.040
 -0.045
 -0.050
 -0.070
 -0.075
 -0.080
 -0.085
 -0.090
 -0.115
 -0.130
 -0.130
 -0.125
 -0.125
 -0.120
 -0.145
 -0.170
 -0.175
 -0.160
 -0.125
 -0.125
 -0.115
 -0.150
 -0.165
 -0.145
 -0.130
 -0.145
 -0.160
 -0.180
 -0.190
 -0.215
 -0.220
 -0.200
 -0.225
 -0.240
 -0.245
 -0.230
 -0.210
 -0.200
 -0.215
 -0.215
 -0.230
 -0.205
 -0.200
 -0.210
 -0.220
 -0.230
 -0.210
 -0.210
 -0.225
 -0.220
 -0.205
 -0.190
 -0.175
 -0.170
 -0.160
 -0.165
 -0.140
 -0.130
 -0.120
 -0.100
 -0.085
 -0.085
 -0.095
 -0.100
 -0.105
 -0.110
 -0.090
 -0.095
 -0.105
 -0.125
 -0.125
 -0.115
 -0.125
 -0.165
 -0.205
 -0.250
 -0.265
 -0.250
 -0.220
 -0.200
 -0.170
 -0.175
 -0.175
 -0.190
 -0.200
 -0.215
 -0.245
 -0.270
 -0.280
 -0.280
 -0.275
 -0.270
 -0.270
 -0.260
 -0.250
 -0.255
 -0.255
 -0.280
 -0.300
 -0.305
 -0.320
 -0.300
 -0.300
 -0.295
 -0.300
 -0.315
 -0.310
 -0.300
 -0.290
 -0.305
 -0.305
 -0.300
 -0.280
 -0.245
 -0.200
 -0.215
 -0.210
 -0.230
 -0.220
 -0.210
 -0.200
 -0.195
 -0.205
 -0.235
 -0.235
 -0.230
 -0.225
 -0.205
 -0.210
 -0.220
 -0.205
 -0.185
 -0.175
 -0.170
 -0.180
 -0.195
 -0.185
 -0.175
 -0.205
 -0.195
 -0.220
 -0.235
 -0.255
 -0.290
 -0.320
 -0.345
 -0.340
 -0.325
 -0.290
 -0.280
 -0.245
 -0.225
 -0.195
 -0.180
 -0.150
 -0.100
 -0.025
  0.075
  0.215
  0.395
  0.490
  0.470
  0.450
  0.385
  0.275
  0.145
  0.045
  0.000
 -0.025
 -0.065
 -0.105
 -0.135
 -0.145
 -0.140
 -0.135
 -0.125
 -0.135
 -0.135
 -0.155
 -0.150
 -0.110
 -0.120
 -0.110
 -0.110
 -0.105
 -0.085
 -0.070
 -0.060
 -0.065
 -0.095
 -0.100
 -0.095
 -0.085
 -0.085
 -0.090
 -0.090
 -0.095
 -0.090
 -0.075
 -0.075
 -0.080
 -0.070
 -0.050
 -0.035
 -0.010
 -0.010
 -0.030
 -0.030
 -0.025
 -0.015
 -0.005
  0.005
  0.000
 -0.005
 -0.005
  0.030
  0.055
  0.060
  0.045
  0.030
  0.035
  0.050
  0.070
  0.070
  0.065
  0.050
  0.040
  0.080
  0.110
  0.120
  0.120
  0.095
  0.095
  0.105
  0.125
  0.125
  0.125
  0.115
  0.125
  0.140
  0.150
  0.140
  0.140
  0.125
  0.125
  0.135
  0.130
  0.130
  0.140
  0.135
  0.145
  0.145
  0.135
  0.115
  0.105
  0.090
  0.110
  0.110
  0.105
  0.090
  0.070
  0.050
  0.040
  0.035
  0.035
  0.025
  0.005
 -0.020
 -0.035
 -0.050
 -0.045
 -0.050
 -0.075
 -0.100
 -0.120
 -0.120
 -0.105
 -0.120
 -0.150
 -0.150
 -0.150
 -0.140
 -0.150
 -0.175
 -0.180
 -0.190
 -0.190
 -0.185
 -0.150
 -0.150
 -0.195
 -0.220
 -0.210
 -0.200
 -0.210
 -0.215
 -0.210
 -0.205
 -0.200
 -0.210
 -0.200
 -0.220
 -0.235
 -0.235
 -0.225
 -0.210
 -0.200
 -0.215
 -0.240
 -0.270
 -0.265
 -0.260
 -0.235
 -0.220
 -0.220
 -0.225
 -0.210
 -0.220
 -0.200
 -0.220
 -0.245
 -0.265
 -0.265
 -0.255
 -0.225
 -0.230
 -0.240
 -0.250
 -0.255
 -0.255
 -0.235
 -0.260
 -0.265
 -0.285
 -0.275
 -0.275
 -0.275
 -0.270
 -0.260
 -0.260
 -0.260
 -0.255
 -0.260
 -0.250
 -0.270
 -0.275
 -0.275
 -0.240
 -0.215
 -0.205
 -0.205
 -0.215
 -0.220
 -0.200
 -0.190
 -0.190
 -0.185
 -0.170
 -0.145
 -0.125
 -0.110
 -0.110
 -0.125
 -0.150
 -0.155
 -0.155
 -0.145
 -0.160
 -0.170
 -0.180
 -0.185
 -0.190
 -0.205
 -0.225
 -0.255
 -0.275
 -0.285
 -0.275
 -0.275
 -0.270
 -0.280
 -0.290
 -0.300
 -0.300
 -0.295
 -0.315
 -0.325
 -0.325
 -0.320
 -0.320
 -0.320
 -0.320
 -0.340
 -0.340
 -0.340
 -0.340
 -0.330
 -0.360
 -0.360
 -0.360
 -0.355
 -0.365
 -0.350
 -0.350
 -0.370
 -0.365
 -0.360
 -0.340
 -0.340
 -0.330
 -0.335
 -0.340
 -0.325
 -0.305
 -0.270
 -0.265
 -0.270
 -0.275
 -0.255
 -0.235
 -0.235
 -0.240
 -0.260
 -0.285
 -0.290
 -0.265
 -0.235
 -0.235
 -0.230
 -0.220
 -0.220
 -0.220
 -0.230
 -0.230
 -0.215
 -0.205
 -0.205
 -0.190
 -0.205
 -0.230
 -0.260
 -0.310
 -0.350
 -0.385
 -0.400
 -0.390
 -0.355
 -0.345
 -0.330
 -0.285
 -0.245
 -0.215
 -0.195
 -0.205
 -0.175
 -0.105
  0.010
  0.170
  0.340
  0.475
  0.515
  0.475
  0.400
  0.330
  0.230
  0.110
  0.015
 -0.045
 -0.080
 -0.135
 -0.145
 -0.150
 -0.175
 -0.170
 -0.150
 -0.125
 -0.145
 -0.150
 -0.160
 -0.100
 -0.085
 -0.090
 -0.075
 -0.105
 -0.120
 -0.130
 -0.110
 -0.110
 -0.100
 -0.095
 -0.080
 -0.065
 -0.035
 -0.025
 -0.030
 -0.065
 -0.090
 -0.085
 -0.055
 -0.030
 -0.020
 -0.015
 -0.040
 -0.025
 -0.035
 -0.045
 -0.045
 -0.055
 -0.020
  0.005
  0.035
  0.040
  0.035
  0.025
  0.025
  0.030
  0.050
  0.050
  0.075
  0.090
  0.090
  0.080
  0.095
  0.105
  0.085
  0.100
  0.110
  0.125
  0.150
  0.155
  0.150
  0.150
  0.145
  0.165
  0.175
  0.170
  0.160
  0.160
  0.160
  0.165
  0.175
  0.175
  0.170
  0.150
  0.155
  0.175
  0.200
  0.185
  0.170
  0.160
  0.140
  0.160
  0.150
  0.135
  0.130
  0.105
  0.095
  0.085
  0.075
  0.050
  0.035
  0.010
 -0.005
 -0.010
 -0.015
 -0.030
 -0.070
 -0.095
 -0.085
 -0.050
 -0.050
 -0.070
 -0.095
 -0.095
 -0.100
 -0.120
 -0.130
 -0.145
 -0.140
 -0.150
 -0.130
 -0.120
 -0.125
 -0.155
 -0.190
 -0.210
 -0.210
 -0.185
 -0.175
 -0.160
 -0.155
 -0.170
 -0.180
 -0.200
 -0.205
 -0.215
 -0.225
 -0.190
 -0.205
 -0.185
 -0.205
 -0.230
 -0.265
 -0.290
 -0.275
 -0.260
 -0.220
 -0.215
 -0.240
 -0.255
 -0.275
 -0.285
 -0.255
 -0.245
 -0.260
 -0.260
 -0.270
 -0.280
 -0.275
 -0.300
 -0.310
 -0.330
 -0.335
 -0.325
 -0.310
 -0.310
 -0.305
 -0.305
 -0.315
 -0.285
 -0.265
 -0.270
 -0.285
 -0.280
 -0.265
 -0.240
 -0.225
 -0.220
 -0.215
 -0.195
 -0.165
 -0.150
 -0.140
 -0.170
 -0.190
 -0.205
 -0.220
 -0.220
 -0.240
 -0.265
 -0.255
 -0.260
 -0.275
 -0.260
 -0.270
 -0.305
 -0.300
 -0.300
 -0.300
 -0.295
 -0.310
 -0.325
 -0.345
 -0.355
 -0.370
 -0.360
 -0.350
 -0.350
 -0.350
 -0.365
 -0.380
 -0.380
 -0.385
 -0.420
 -0.430
 -0.420
 -0.410
 -0.395
 -0.365
 -0.375
 -0.405
 -0.425
 -0.425
 -0.420
 -0.410
 -0.380
 -0.370
 -0.370
 -0.340
 -0.320
 -0.295
 -0.310
 -0.340
 -0.350
 -0.350
 -0.320
 -0.300
 -0.305
 -0.315
 -0.320
 -0.325
 -0.295
 -0.270
 -0.255
 -0.255
 -0.285
 -0.305
 -0.285
 -0.290
 -0.315
 -0.315
 -0.310
 -0.300
 -0.270
 -0.245
 -0.290
 -0.360
 -0.445
 -0.490
 -0.505
 -0.470
 -0.435
 -0.395
 -0.355
 -0.320
 -0.305
 -0.305
 -0.290
 -0.295
 -0.265
 -0.220
 -0.090
  0.115
  0.310
  0.435
  0.425
  0.365
  0.295
  0.215
  0.090
  0.015
 -0.045
 -0.085
 -0.130
 -0.170
 -0.215
 -0.250
 -0.270
 -0.265
 -0.235
 -0.215
 -0.220
 -0.230
 -0.240
 -0.230
 -0.200
 -0.185
 -0.210
 -0.200
 -0.210
 -0.215
 -0.185
 -0.180
 -0.170
 -0.205
 -0.215
 -0.215
 -0.200
 -0.170
 -0.165
 -0.170
 -0.180
 -0.175
 -0.180
 -0.150
 -0.135
 -0.130
 -0.135
 -0.125
 -0.120
 -0.110
 -0.110
 -0.100
 -0.110
 -0.105
 -0.085
 -0.070
 -0.065
 -0.060
 -0.055
 -0.075
 -0.075
 -0.060
 -0.060
 -0.065
 -0.080
 -0.070
 -0.050
  0.000
 -0.005
 -0.005
 -0.015
 -0.015
 -0.005
  0.005
  0.010
  0.040
  0.045
  0.055
  0.065
  0.070
  0.060
  0.045
  0.035
  0.030
  0.045
  0.060
  0.070
  0.090
  0.065
  0.055
  0.065
  0.080
  0.060
  0.070
  0.075
  0.065
  0.065
  0.080
  0.055
  0.065
  0.045
  0.020
  0.005
  0.020
  0.010
 -0.025
 -0.035
 -0.045
 -0.060
 -0.065
 -0.075
 -0.095
 -0.085
 -0.090
 -0.080
 -0.085
 -0.110
 -0.130
 -0.170
 -0.165
 -0.165
 -0.160
 -0.160
 -0.160
 -0.170
 -0.185
 -0.180
 -0.185
 -0.215
 -0.235
 -0.240
 -0.220
 -0.180
 -0.170
 -0.165
 -0.190
 -0.200
 -0.215
 -0.215
 -0.210
 -0.205
 -0.200
 -0.210
 -0.210
 -0.195
 -0.185
 -0.230
 -0.245
 -0.260
 -0.250
 -0.220
 -0.210
 -0.220
 -0.215
 -0.235
 -0.235
 -0.230
 -0.225
 -0.240
 -0.240
 -0.255
 -0.280
 -0.280
 -0.265
 -0.275
 -0.270
 -0.260
 -0.250
 -0.235
 -0.225
 -0.250
 -0.285
 -0.285
 -0.280
 -0.265
 -0.240
 -0.225
 -0.225
 -0.240
 -0.250
 -0.250
 -0.230
 -0.215
 -0.215
 -0.200
 -0.190
 -0.175
 -0.160
 -0.155
 -0.170
 -0.170
 -0.170
 -0.155
 -0.125
 -0.105
 -0.070
 -0.080
 -0.095
 -0.115
 -0.115
 -0.140
 -0.155
 -0.150
 -0.150
 -0.150
 -0.160
 -0.195
 -0.220
 -0.225
 -0.230
 -0.215
 -0.210
 -0.210
 -0.205
 -0.195
 -0.190
 -0.170
 -0.190
 -0.215
 -0.250
 -0.250
 -0.245
 -0.240
 -0.225
 -0.235
 -0.255
 -0.285
 -0.310
 -0.310
 -0.290
 -0.275
 -0.270
 -0.255
 -0.265
 -0.275
 -0.260
 -0.265
 -0.285
 -0.290
 -0.260
 -0.225
 -0.205
 -0.195
 -0.220
 -0.230
 -0.215
 -0.220
 -0.190
 -0.185
 -0.185
 -0.180
 -0.190
 -0.180
 -0.175
 -0.180
 -0.185
 -0.180
 -0.160
 -0.140
 -0.115
 -0.115
 -0.110
 -0.105
 -0.110
 -0.110
 -0.110
 -0.125
 -0.125
 -0.120
 -0.130
 -0.135
 -0.155
 -0.195
 -0.220
 -0.235
 -0.255
 -0.215
 -0.155
 -0.130
 -0.085
 -0.035
  0.020
  0.060
  0.070
  0.050
  0.070
  0.105
  0.235
  0.430
  0.620
  0.720
  0.685
  0.615
  0.525
  0.425
  0.305
  0.185
  0.110
  0.050
 -0.005
 -0.040
 -0.035
 -0.060
 -0.085
 -0.095
 -0.100
 -0.080
 -0.065
 -0.065
 -0.065
 -0.075
 -0.065
 -0.040
 -0.040
 -0.060
 -0.045
 -0.025
 -0.020
  0.000
  0.010
  0.005
  0.005
 -0.005
 -0.030
 -0.030
 -0.010
  0.010
  0.015
  0.020
  0.020
  0.055
  0.040
  0.030
  0.010
  0.005
  0.020
  0.015
  0.045
  0.065
  0.070
  0.040
  0.035
  0.040
  0.060
  0.065
  0.090
  0.085
  0.065
  0.075
  0.070
  0.060
  0.045
  0.055
  0.050
  0.070
  0.085
  0.095
  0.115
  0.100
  0.095
  0.120
  0.140
  0.140
  0.120
  0.090
  0.090
  0.115
  0.140
  0.150
  0.155
  0.150
  0.150
  0.155
  0.160
  0.135
  0.115
  0.110
  0.130
  0.150
  0.150
  0.170
  0.160
  0.150
  0.150
  0.160
  0.175
  0.165
  0.175
  0.180
  0.190
  0.180
  0.175
  0.175
  0.150
  0.130
  0.110
  0.125
  0.100
  0.110
  0.100
  0.070
  0.065
  0.060
  0.050
  0.025
  0.000
 -0.020
 -0.025
  0.000
  0.015
  0.025
  0.010
 -0.010
 -0.030
 -0.060
 -0.055
 -0.090
 -0.090
 -0.110
 -0.110
 -0.105
 -0.095
 -0.105
 -0.110
 -0.120
 -0.145
 -0.160
 -0.150
 -0.155
 -0.160
 -0.145
 -0.140
 -0.120
 -0.105
 -0.110
 -0.120
 -0.155
 -0.155
 -0.160
 -0.145
 -0.145
 -0.155
 -0.165
 -0.155
 -0.135
 -0.125
 -0.110
 -0.125
 -0.155
 -0.155
 -0.160
 -0.155
 -0.145
 -0.145
 -0.170
 -0.180
 -0.190
 -0.170
 -0.185
 -0.200
 -0.210
 -0.205
 -0.205
 -0.185
 -0.175
 -0.185
 -0.205
 -0.210
 -0.225
 -0.230
 -0.235
 -0.235
 -0.230
 -0.230
 -0.200
 -0.195
 -0.175
 -0.185
 -0.210
 -0.225
 -0.245
 -0.240
 -0.220
 -0.230
 -0.245
 -0.260
 -0.225
 -0.225
 -0.235
 -0.235
 -0.255
 -0.260
 -0.245
 -0.205
 -0.185
 -0.180
 -0.180
 -0.190
 -0.140
 -0.100
 -0.080
 -0.075
 -0.100
 -0.115
 -0.125
 -0.110
 -0.110
 -0.110
 -0.115
 -0.125
 -0.120
 -0.125
 -0.165
 -0.190
 -0.205
 -0.215
 -0.220
 -0.225
 -0.230
 -0.250
 -0.275
 -0.265
 -0.265
 -0.250
 -0.250
 -0.270
 -0.260
 -0.270
 -0.255
 -0.235
 -0.245
 -0.265
 -0.285
 -0.290
 -0.290
 -0.290
 -0.285
 -0.295
 -0.310
 -0.320
 -0.315
 -0.275
 -0.270
 -0.290
 -0.325
 -0.340
 -0.335
 -0.310
 -0.300
 -0.315
 -0.325
 -0.340
 -0.335
 -0.340
 -0.345
 -0.330
 -0.340
 -0.305
 -0.300
 -0.285
 -0.270
 -0.265
 -0.270
 -0.275
 -0.270
 -0.245
 -0.250
 -0.245
 -0.250
 -0.230
 -0.205
 -0.200
 -0.195
 -0.215
 -0.235
 -0.235
 -0.225
 -0.195
 -0.210
 -0.205
 -0.205
 -0.190
 -0.185
 -0.185
 -0.170
 -0.175
 -0.190
 -0.200
 -0.200
 -0.205
 -0.210
 -0.240
 -0.250
 -0.310
 -0.345
 -0.365
 -0.370
 -0.360
 -0.335
 -0.300
 -0.240
 -0.175
 -0.150
 -0.150
 -0.160
 -0.160
 -0.150
 -0.095
  0.005
  0.135
  0.330
  0.510
  0.620
  0.640
  0.560
  0.480
  0.395
  0.290
  0.190
  0.110
  0.060
  0.015
 -0.030
 -0.030
 -0.045
 -0.070
 -0.085
 -0.085
 -0.105
 -0.105
 -0.070
 -0.060
 -0.040
 -0.050
 -0.075
 -0.070
 -0.075
 -0.070
 -0.070
 -0.070
 -0.075
 -0.060
 -0.035
 -0.020
 -0.020
 -0.030
 -0.050
 -0.050
 -0.030
 -0.030
 -0.025
 -0.025
 -0.030
 -0.010
 -0.005
  0.010
  0.010
  0.010
  0.005
 -0.005
  0.030
  0.050
  0.055
  0.055
  0.055
  0.050
  0.060
  0.065
  0.060
  0.055
  0.035
  0.050
  0.080
  0.100
  0.115
  0.130
  0.125
  0.125
  0.130
  0.130
  0.145
  0.170
  0.160
  0.205
  0.235
  0.250
  0.255
  0.245
  0.235
  0.225
  0.235
  0.245
  0.245
  0.235
  0.230
  0.230
  0.260
  0.270
  0.265
  0.255
  0.245
  0.245
  0.255
  0.275
  0.280
  0.275
  0.275
  0.265
  0.270
  0.275
  0.275
  0.270
  0.280
  0.280
  0.305
  0.315
  0.320
  0.295
  0.285
  0.270
  0.250
  0.235
  0.240
  0.225
  0.205
  0.190
  0.185
  0.185
  0.180
  0.165
  0.155
  0.155
  0.150
  0.140
  0.135
  0.135
  0.140
  0.130
  0.125
  0.110
  0.095
  0.070
  0.065
  0.055
  0.060
  0.065
  0.065
  0.050
  0.055
  0.035
  0.040
  0.050
  0.035
  0.030
  0.025
  0.010
 -0.005
 -0.010
 -0.005
 -0.005
 -0.015
 -0.005
 -0.005
  0.005
 -0.010
 -0.020
 -0.020
 -0.015
 -0.020
 -0.005
 -0.015
 -0.015
 -0.045
 -0.040
 -0.030
 -0.040
 -0.050
 -0.060
 -0.070
 -0.065
 -0.055
 -0.030
 -0.020
 -0.030
 -0.060
 -0.080
 -0.090
 -0.085
 -0.080
 -0.075
 -0.080
 -0.095
 -0.075
 -0.070
 -0.075
 -0.085
 -0.100
 -0.100
 -0.095
 -0.115
 -0.115
 -0.105
 -0.120
 -0.120
 -0.120
 -0.125
 -0.130
 -0.135
 -0.140
 -0.135
 -0.120
 -0.115
 -0.105
 -0.095
 -0.100
 -0.130
 -0.125
 -0.115
 -0.115
 -0.090
 -0.100
 -0.105
 -0.085
 -0.070
 -0.055
 -0.050
 -0.045
 -0.050
 -0.035
 -0.015
 -0.005
  0.000
 -0.005
 -0.010
  0.000
  0.005
  0.005
  0.000
  0.000
 -0.005
 -0.015
  0.000
 -0.015
 -0.025
 -0.050
 -0.060
 -0.065
 -0.065
 -0.070
 -0.080
 -0.100
 -0.125
 -0.135
 -0.120
 -0.115
 -0.130
 -0.125
 -0.140
 -0.115
 -0.110
 -0.120
 -0.120
 -0.135
 -0.145
 -0.130
 -0.145
 -0.160
 -0.175
 -0.175
 -0.180
 -0.175
 -0.170
 -0.185
 -0.190
 -0.200
 -0.200
 -0.195
 -0.200
 -0.200
 -0.210
 -0.205
 -0.200
 -0.195
 -0.175
 -0.180
 -0.185
 -0.210
 -0.220
 -0.235
 -0.215
 -0.195
 -0.200
 -0.195
 -0.195
 -0.180
 -0.145
 -0.140
 -0.140
 -0.160
 -0.135
 -0.150
 -0.140
 -0.120
 -0.115
 -0.120
 -0.115
 -0.090
 -0.085
 -0.085
 -0.080
 -0.095
 -0.095
 -0.095
 -0.090
 -0.070
 -0.085
 -0.095
 -0.080
 -0.090
 -0.085
 -0.075
 -0.070
 -0.085
 -0.095
 -0.080
 -0.070
 -0.065
 -0.085
 -0.105
 -0.125
 -0.145
 -0.160
 -0.200
 -0.235
 -0.275
 -0.265
 -0.230
 -0.195
 -0.155
 -0.125
 -0.080
 -0.030
  0.025
  0.045
  0.070
  0.090
  0.095
  0.105
  0.180
  0.280
  0.430
  0.575
  0.690
  0.740
  0.735
  0.700
  0.640
  0.590
  0.520
  0.420
  0.300
  0.205
  0.140
  0.070
  0.015
 -0.025
 -0.040
 -0.045
 -0.050
 -0.080
 -0.085
 -0.085
 -0.075
 -0.060
 -0.060
 -0.065
 -0.055
 -0.060
 -0.050
 -0.035
 -0.030
 -0.030
 -0.060
 -0.070
 -0.045
 -0.045
 -0.035
 -0.035
 -0.040
 -0.035
 -0.035
 -0.030
 -0.010
 -0.010
 -0.025
 -0.020
 -0.020
 -0.010
 -0.010
 -0.010
 -0.005
 -0.010
 -0.010
  0.000
  0.000
  0.000
 -0.010
 -0.020
 -0.015
 -0.010
  0.010
  0.030
  0.035
  0.030
  0.025
  0.015
  0.045
  0.035
  0.035
  0.035
  0.055
  0.075
  0.090
  0.090
  0.085
  0.080
  0.085
  0.105
  0.100
  0.095
  0.090
  0.095
  0.105
  0.130
  0.135
  0.135
  0.120
  0.125
  0.120
  0.120
  0.120
  0.110
  0.095
  0.120
  0.130
  0.160
  0.170
  0.170
  0.140
  0.130
  0.135
  0.150
  0.160
  0.170
  0.185
  0.165
  0.170
  0.185
  0.170
  0.160
  0.135
  0.120
  0.125
  0.130
  0.145
  0.160
  0.155
  0.140
  0.145
  0.140
  0.135
  0.120
  0.095
  0.085
  0.075
  0.095
  0.080
  0.050
  0.025
  0.000
 -0.010
 -0.010
 -0.005
 -0.020
 -0.035
 -0.050
 -0.035
 -0.030
 -0.030
 -0.050
 -0.080
 -0.095
 -0.100
 -0.080
 -0.070
 -0.070
 -0.085
 -0.115
 -0.105
 -0.095
 -0.100
 -0.125
 -0.135
 -0.155
 -0.155
 -0.140
 -0.110
 -0.105
 -0.115
 -0.135
 -0.140
 -0.140
 -0.150
 -0.145
 -0.155
 -0.165
 -0.145
 -0.125
 -0.120
 -0.135
 -0.150
 -0.155
 -0.165
 -0.160
 -0.150
 -0.155
 -0.165
 -0.160
 -0.145
 -0.155
 -0.145
 -0.150
 -0.175
 -0.180
 -0.175
 -0.160
 -0.170
 -0.170
 -0.190
 -0.200
 -0.190
 -0.195
 -0.185
 -0.195
 -0.200
 -0.220
 -0.220
 -0.210
 -0.195
 -0.200
 -0.215
 -0.220
 -0.225
 -0.230
 -0.225
 -0.235
 -0.250
 -0.240
 -0.235
 -0.205
 -0.195
 -0.190
 -0.200
 -0.215
 -0.230
 -0.215
 -0.175
 -0.160
 -0.155
 -0.145
 -0.120
 -0.100
 -0.095
 -0.080
 -0.080
 -0.100
 -0.105
 -0.085
 -0.075
 -0.070
 -0.085
 -0.120
 -0.140
 -0.155
 -0.160
 -0.185
 -0.190
 -0.210
 -0.190
 -0.180
 -0.170
 -0.180
 -0.210
 -0.245
 -0.250
 -0.255
 -0.250
 -0.255
 -0.265
 -0.265
 -0.250
 -0.245
 -0.250
 -0.255
 -0.270
 -0.290
 -0.290
 -0.275
 -0.255
 -0.265
 -0.260
 -0.280
 -0.295
 -0.305
 -0.310
 -0.320
 -0.345
 -0.335
 -0.325
 -0.305
 -0.305
 -0.305
 -0.325
 -0.330
 -0.325
 -0.310
 -0.290
 -0.300
 -0.295
 -0.300
 -0.275
 -0.255
 -0.230
 -0.230
 -0.255
 -0.260
 -0.255
 -0.225
 -0.210
 -0.190
 -0.185
 -0.185
 -0.175
 -0.150
 -0.155
 -0.170
 -0.200
 -0.215
 -0.185
 -0.185
 -0.145
 -0.145
 -0.135
 -0.145
 -0.155
 -0.130
 -0.150
 -0.150
 -0.150
 -0.175
 -0.155
 -0.170
 -0.170
 -0.170
 -0.210
 -0.255
 -0.275
 -0.275
 -0.260
 -0.260
 -0.240
 -0.205
 -0.160
 -0.105
 -0.085
 -0.065
 -0.075
 -0.080
 -0.055
  0.020
  0.120
  0.290
  0.425
  0.545
  0.630
  0.630
  0.600
  0.540
  0.445
  0.335
  0.245
  0.180
  0.125
  0.070
  0.020
 -0.020
 -0.025
 -0.030
 -0.020
 -0.050
 -0.080
 -0.080
 -0.080
 -0.055
 -0.050
 -0.065
 -0.075
 -0.085
 -0.055
 -0.040
 -0.035
 -0.030
 -0.040
 -0.045
 -0.050
 -0.030
 -0.020
 -0.005
  0.000
  0.020
  0.040
  0.030
  0.040
  0.040
  0.030
  0.020
  0.030
  0.035
  0.050
  0.055
  0.055
  0.025
  0.030
  0.045
  0.050
  0.030
  0.025
  0.050
  0.070
  0.085
  0.090
  0.090
  0.075
  0.075
  0.080
  0.095
  0.115
  0.120
  0.100
  0.100
  0.110
  0.125
  0.150
  0.150
  0.145
  0.125
  0.120
  0.135
  0.155
  0.170
  0.160
  0.175
  0.190
  0.200
  0.205
  0.200
  0.190
  0.180
  0.165
  0.185
  0.210
  0.230
  0.215
  0.225
  0.215
  0.240
  0.240
  0.230
  0.210
  0.210
  0.215
  0.225
  0.270
  0.280
  0.275
  0.255
  0.245
  0.250
  0.240
  0.235
  0.220
  0.215
  0.220
  0.240
  0.240
  0.225
  0.195
  0.190
  0.185
  0.180
  0.185
  0.165
  0.155
  0.135
  0.155
  0.170
  0.175
  0.155
  0.130
  0.105
  0.085
  0.080
  0.050
  0.045
  0.040
  0.015
  0.035
  0.020
  0.015
  0.005
 -0.020
 -0.050
 -0.055
 -0.050
 -0.055
 -0.050
 -0.030
 -0.025
 -0.010
 -0.020
 -0.040
 -0.050
 -0.075
 -0.105
 -0.100
 -0.080
 -0.060
 -0.040
 -0.035
 -0.055
 -0.040
 -0.040
 -0.030
 -0.045
 -0.065
 -0.080
 -0.100
 -0.075
 -0.085
 -0.080
 -0.100
 -0.115
 -0.115
 -0.125
 -0.115
 -0.130
 -0.150
 -0.160
 -0.155
 -0.125
 -0.120
 -0.110
 -0.120
 -0.140
 -0.150
 -0.160
 -0.160
 -0.175
 -0.190
 -0.195
 -0.175
 -0.150
 -0.125
 -0.125
 -0.155
 -0.180
 -0.185
 -0.190
 -0.180
 -0.190
 -0.200
 -0.200
 -0.195
 -0.185
 -0.190
 -0.190
 -0.210
 -0.245
 -0.245
 -0.255
 -0.235
 -0.215
 -0.205
 -0.195
 -0.190
 -0.190
 -0.185
 -0.195
 -0.190
 -0.185
 -0.155
 -0.130
 -0.105
 -0.105
 -0.125
 -0.125
 -0.115
 -0.095
 -0.080
 -0.080
 -0.090
 -0.090
 -0.090
 -0.090
 -0.070
 -0.085
 -0.105
 -0.130
 -0.160
 -0.145
 -0.155
 -0.165
 -0.180
 -0.185
 -0.175
 -0.175
 -0.180
 -0.180
 -0.205
 -0.235
 -0.230
 -0.220
 -0.235
 -0.220
 -0.220
 -0.215
 -0.220
 -0.215
 -0.225
 -0.250
 -0.270
 -0.305
 -0.290
 -0.290
 -0.285
 -0.280
 -0.290
 -0.290
 -0.280
 -0.270
 -0.275
 -0.280
 -0.290
 -0.305
 -0.290
 -0.260
 -0.265
 -0.270
 -0.285
 -0.290
 -0.295
 -0.305
 -0.295
 -0.270
 -0.270
 -0.260
 -0.230
 -0.190
 -0.170
 -0.140
 -0.160
 -0.200
 -0.200
 -0.190
 -0.180
 -0.165
 -0.180
 -0.185
 -0.185
 -0.185
 -0.175
 -0.165
 -0.170
 -0.185
 -0.165
 -0.145
 -0.140
 -0.130
 -0.135
 -0.160
 -0.155
 -0.155
 -0.160
 -0.180
 -0.205
 -0.230
 -0.260
 -0.285
 -0.295
 -0.295
 -0.295
 -0.290
 -0.255
 -0.235
 -0.155
 -0.090
 -0.050
 -0.030
  0.005
  0.075
  0.170
  0.320
  0.495
  0.625
  0.685
  0.655
  0.605
  0.525
  0.385
  0.240
  0.125
  0.040
  0.005
 -0.020
 -0.040
 -0.070
 -0.060
 -0.070
 -0.085
 -0.105
 -0.115
 -0.105
 -0.105
 -0.080
 -0.060
 -0.060
 -0.060
 -0.075
 -0.080
 -0.090
 -0.085
 -0.090
 -0.105
 -0.095
 -0.065
 -0.025
 -0.020
 -0.035
 -0.050
 -0.065
 -0.050
 -0.060
 -0.050
 -0.040
 -0.035
 -0.015
 -0.010
  0.000
 -0.020
 -0.030
 -0.025
 -0.015
 -0.005
  0.010
  0.035
  0.035
  0.035
  0.025
  0.035
  0.050
  0.060
  0.090
  0.105
  0.105
  0.115
  0.120
  0.090
  0.070
  0.065
  0.075
  0.130
  0.155
  0.190
  0.190
  0.175
  0.150
  0.150
  0.155
  0.160
  0.150
  0.150
  0.150
  0.170
  0.185
  0.180
  0.170
  0.135
  0.135
  0.145
  0.185
  0.205
  0.190
  0.165
  0.155
  0.155
  0.155
  0.150
  0.175
  0.155
  0.135
  0.135
  0.145
  0.145
  0.130
  0.120
  0.095
  0.085
