 -0.095
 -0.095
 -0.095
 -0.095
 -0.095
 -0.095
 -0.095
 -0.095
 -0.105
 -0.130
 -0.140
 -0.125
 -0.085
 -0.055
 -0.030
 -0.030
 -0.035
 -0.055
 -0.065
 -0.070
 -0.060
 -0.045
 -0.050
 -0.060
 -0.015
  0.015
  0.060
  0.075
  0.050
  0.015
  0.000
  0.040
  0.080
  0.100
  0.095
  0.060
  0.070
  0.080
  0.100
  0.095
  0.060
  0.045
  0.050
  0.075
  0.070
  0.055
  0.045
  0.045
  0.045
  0.040
  0.035
  0.025
  0.020
  0.000
  0.000
  0.005
  0.005
  0.020
  0.015
  0.025
  0.005
 -0.005
 -0.010
 -0.005
 -0.005
  0.010
  0.035
  0.075
  0.085
  0.085
  0.065
  0.025
  0.015
  0.010
  0.030
  0.055
  0.070
  0.065
  0.055
  0.035
 -0.015
 -0.105
 -0.170
 -0.180
 -0.145
 -0.125
 -0.125
 -0.125
 -0.170
 -0.195
 -0.215
 -0.220
 -0.210
 -0.200
 -0.220
 -0.210
 -0.195
 -0.160
 -0.145
 -0.170
 -0.185
 -0.200
 -0.210
 -0.230
 -0.215
 -0.195
 -0.230
 -0.270
 -0.290
 -0.275
 -0.255
 -0.240
 -0.245
 -0.240
 -0.250
 -0.255
 -0.240
 -0.240
 -0.215
 -0.200
 -0.175
 -0.155
 -0.130
 -0.130
 -0.125
 -0.095
 -0.070
 -0.070
 -0.075
 -0.090
 -0.115
 -0.085
 -0.065
 -0.040
 -0.050
 -0.080
 -0.075
 -0.085
 -0.055
 -0.015
 -0.005
 -0.030
 -0.060
 -0.070
 -0.070
 -0.185
 -0.480
 -0.865
 -1.255
 -1.690
 -2.160
 -2.570
 -2.850
 -2.945
 -2.940
 -2.830
 -2.520
 -1.925
 -1.290
 -0.655
 -0.080
  0.020
  0.040
  0.065
  0.090
  0.120
  0.150
  0.170
  0.180
  0.195
  0.160
  0.130
  0.135
  0.165
  0.235
  0.275
  0.250
  0.220
  0.200
  0.185
  0.190
  0.210
  0.215
  0.220
  0.210
  0.190
  0.180
  0.190
  0.175
  0.175
  0.205
  0.225
  0.220
  0.215
  0.200
  0.185
  0.175
  0.155
  0.165
  0.190
  0.195
  0.200
  0.200
  0.205
  0.205
  0.210
  0.210
  0.200
  0.180
  0.160
  0.180
  0.175
  0.160
  0.150
  0.130
  0.135
  0.135
  0.140
  0.100
  0.080
  0.035
 -0.005
 -0.030
 -0.005
 -0.020
 -0.015
 -0.035
 -0.030
 -0.025
 -0.020
 -0.035
 -0.050
 -0.075
 -0.120
 -0.150
 -0.150
 -0.145
 -0.160
 -0.180
 -0.210
 -0.190
 -0.175
 -0.185
 -0.205
 -0.225
 -0.235
 -0.240
 -0.235
 -0.200
 -0.195
 -0.195
 -0.215
 -0.205
 -0.190
 -0.165
 -0.170
 -0.185
 -0.220
 -0.205
 -0.170
 -0.145
 -0.135
 -0.135
 -0.145
 -0.135
 -0.130
 -0.105
 -0.105
 -0.110
 -0.095
 -0.075
 -0.045
 -0.025
 -0.030
 -0.060
 -0.075
 -0.060
 -0.035
 -0.005
 -0.005
 -0.010
 -0.015
 -0.005
  0.030
  0.040
  0.040
  0.035
  0.025
  0.030
  0.060
  0.075
  0.090
  0.065
  0.035
  0.040
  0.080
  0.105
  0.120
  0.105
  0.065
  0.030
  0.050
  0.075
  0.095
  0.070
  0.045
  0.055
  0.070
  0.080
  0.075
  0.040
  0.020
  0.025
  0.025
  0.020
  0.020
  0.010
  0.015
  0.025
  0.035
  0.040
  0.035
  0.000
 -0.025
 -0.005
 -0.005
 -0.015
 -0.030
 -0.020
 -0.035
 -0.005
  0.030
  0.070
  0.070
  0.075
  0.075
  0.080
  0.095
  0.115
  0.110
  0.060
 -0.015
 -0.045
 -0.065
 -0.090
 -0.115
 -0.155
 -0.185
 -0.175
 -0.155
 -0.150
 -0.155
 -0.180
 -0.195
 -0.195
 -0.175
 -0.170
 -0.175
 -0.190
 -0.220
 -0.225
 -0.230
 -0.200
 -0.190
 -0.190
 -0.215
 -0.225
 -0.225
 -0.215
 -0.220
 -0.240
 -0.280
 -0.290
 -0.290
 -0.280
 -0.285
 -0.300
 -0.280
 -0.275
 -0.260
 -0.245
 -0.250
 -0.255
 -0.270
 -0.265
 -0.245
 -0.240
 -0.205
 -0.180
 -0.155
 -0.140
 -0.130
 -0.130
 -0.115
 -0.090
 -0.085
 -0.075
 -0.055
 -0.040
 -0.040
 -0.055
 -0.075
 -0.085
 -0.070
 -0.070
 -0.065
 -0.065
 -0.060
 -0.065
 -0.025
 -0.020
 -0.050
 -0.085
 -0.100
 -0.050
 -0.065
 -0.235
 -0.590
 -1.030
 -1.470
 -1.925
 -2.345
 -2.675
 -2.895
 -3.000
 -3.025
 -2.985
 -2.820
 -2.495
 -1.930
 -1.295
 -0.660
 -0.125
  0.070
  0.155
  0.175
  0.150
  0.130
  0.160
  0.200
  0.225
  0.235
  0.225
  0.215
  0.220
  0.240
  0.255
  0.240
  0.255
  0.260
  0.275
  0.290
  0.300
  0.300
  0.300
  0.275
  0.265
  0.265
  0.280
  0.290
  0.295
  0.320
  0.325
  0.330
  0.305
  0.290
  0.275
  0.280
  0.305
  0.315
  0.330
  0.325
  0.315
  0.305
  0.290
  0.285
  0.280
  0.290
  0.295
  0.290
  0.300
  0.320
  0.315
  0.325
  0.295
  0.275
  0.260
  0.280
  0.290
  0.275
  0.250
  0.220
  0.205
  0.220
  0.225
  0.210
  0.210
  0.205
  0.210
  0.215
  0.200
  0.160
  0.105
  0.075
  0.050
  0.045
  0.045
  0.050
  0.040
  0.040
  0.020
  0.020
  0.010
 -0.005
 -0.040
 -0.060
 -0.060
 -0.065
 -0.060
 -0.065
 -0.110
 -0.135
 -0.140
 -0.140
 -0.140
 -0.150
 -0.165
 -0.160
 -0.170
 -0.145
 -0.145
 -0.140
 -0.145
 -0.145
 -0.135
 -0.130
 -0.110
 -0.100
 -0.110
 -0.110
 -0.110
 -0.090
 -0.100
 -0.100
 -0.110
 -0.105
 -0.070
 -0.055
 -0.060
 -0.075
 -0.085
 -0.045
  0.005
  0.030
  0.045
  0.030
  0.010
  0.010
  0.045
  0.070
  0.080
  0.070
  0.050
  0.055
  0.075
  0.090
  0.095
  0.105
  0.095
  0.080
  0.080
  0.110
  0.140
  0.155
  0.145
  0.125
  0.105
  0.115
  0.115
  0.115
  0.120
  0.115
  0.105
  0.100
  0.100
  0.095
  0.085
  0.065
  0.055
  0.070
  0.080
  0.070
  0.055
  0.025
  0.030
  0.035
  0.025
  0.025
  0.005
  0.010
  0.020
  0.040
  0.050
  0.055
  0.025
  0.010
  0.005
  0.025
  0.045
  0.045
  0.045
  0.035
  0.050
  0.060
  0.060
  0.065
  0.050
  0.040
  0.035
  0.045
  0.060
  0.065
  0.065
  0.065
  0.065
  0.060
  0.040
 -0.005
 -0.070
 -0.125
 -0.135
 -0.145
 -0.160
 -0.180
 -0.200
 -0.190
 -0.205
 -0.200
 -0.170
 -0.170
 -0.160
 -0.160
 -0.170
 -0.180
 -0.165
 -0.170
 -0.200
 -0.210
 -0.215
 -0.215
 -0.195
 -0.215
 -0.245
 -0.265
 -0.260
 -0.245
 -0.245
 -0.240
 -0.250
 -0.265
 -0.275
 -0.275
 -0.285
 -0.285
 -0.295
 -0.280
 -0.290
 -0.260
 -0.260
 -0.265
 -0.260
 -0.260
 -0.245
 -0.225
 -0.220
 -0.205
 -0.205
 -0.195
 -0.180
 -0.140
 -0.115
 -0.100
 -0.100
 -0.085
 -0.090
 -0.085
 -0.075
 -0.070
 -0.085
 -0.080
 -0.075
 -0.060
 -0.050
 -0.045
 -0.060
 -0.075
 -0.100
 -0.100
 -0.095
 -0.070
 -0.070
 -0.065
 -0.070
 -0.085
 -0.080
 -0.065
 -0.065
 -0.195
 -0.475
 -0.745
 -0.985
 -1.255
 -1.560
 -1.915
 -2.285
 -2.600
 -2.825
 -2.940
 -2.985
 -2.945
 -2.795
 -2.500
 -1.985
 -1.350
 -0.715
 -0.305
 -0.085
  0.025
  0.105
  0.120
  0.105
  0.085
  0.100
  0.140
  0.165
  0.190
  0.195
  0.190
  0.185
  0.185
  0.210
  0.230
  0.220
  0.200
  0.220
  0.250
  0.250
  0.240
  0.225
  0.210
  0.205
  0.240
  0.270
  0.300
  0.260
  0.230
  0.225
  0.215
  0.230
  0.245
  0.235
  0.230
  0.245
  0.255
  0.265
  0.245
  0.240
  0.215
  0.200
  0.220
  0.240
  0.220
  0.215
  0.225
  0.235
  0.250
  0.265
  0.265
  0.260
  0.245
  0.240
  0.255
  0.265
  0.265
  0.260
  0.230
  0.210
  0.225
  0.245
  0.260
  0.245
  0.230
  0.205
  0.220
  0.220
  0.215
  0.195
  0.185
  0.175
  0.165
  0.160
  0.140
  0.110
  0.100
  0.075
  0.105
  0.100
  0.075
  0.065
  0.035
  0.025
  0.015
  0.015
  0.000
 -0.035
 -0.060
 -0.070
 -0.065
 -0.065
 -0.065
 -0.080
 -0.100
 -0.125
 -0.130
 -0.160
 -0.190
 -0.195
 -0.185
 -0.180
 -0.170
 -0.150
 -0.170
 -0.190
 -0.215
 -0.225
 -0.215
 -0.210
 -0.215
 -0.225
 -0.230
 -0.230
 -0.230
 -0.210
 -0.210
 -0.210
 -0.220
 -0.225
 -0.220
 -0.205
 -0.225
 -0.210
 -0.200
 -0.185
 -0.165
 -0.120
 -0.125
 -0.120
 -0.140
 -0.145
 -0.135
 -0.115
 -0.125
 -0.125
 -0.135
 -0.130
 -0.120
 -0.095
 -0.100
 -0.090
 -0.085
 -0.090
 -0.085
 -0.070
 -0.070
 -0.070
 -0.075
 -0.070
 -0.030
 -0.030
 -0.030
 -0.030
 -0.035
 -0.020
 -0.005
  0.020
  0.000
  0.000
  0.010
  0.015
  0.025
  0.045
  0.030
  0.035
  0.040
  0.035
  0.055
  0.075
  0.065
  0.050
  0.030
  0.030
  0.050
  0.045
  0.070
  0.060
  0.070
  0.065
  0.075
  0.080
  0.075
  0.070
  0.055
  0.050
  0.050
  0.060
  0.050
  0.040
  0.020
  0.015
  0.025
  0.045
  0.050
  0.035
  0.035
  0.010
  0.015
  0.025
  0.020
 -0.005
 -0.015
 -0.020
  0.005
  0.005
  0.015
 -0.005
 -0.010
 -0.010
 -0.015
 -0.010
 -0.005
 -0.005
  0.000
  0.000
  0.020
  0.045
  0.040
  0.005
 -0.005
 -0.005
  0.015
  0.035
  0.065
  0.065
  0.090
  0.090
  0.095
  0.070
  0.030
  0.000
 -0.045
 -0.090
 -0.115
 -0.135
 -0.145
 -0.160
 -0.185
 -0.210
 -0.200
 -0.180
 -0.190
 -0.210
 -0.210
 -0.195
 -0.165
 -0.150
 -0.160
 -0.175
 -0.185
 -0.185
 -0.170
 -0.185
 -0.195
 -0.220
 -0.240
 -0.240
 -0.225
 -0.220
 -0.220
 -0.230
 -0.245
 -0.265
 -0.260
 -0.265
 -0.290
 -0.315
 -0.310
 -0.310
 -0.295
 -0.290
 -0.325
 -0.320
 -0.320
 -0.275
 -0.255
 -0.245
 -0.245
 -0.245
 -0.235
 -0.225
 -0.200
 -0.190
 -0.180
 -0.190
 -0.185
 -0.155
 -0.110
 -0.110
 -0.090
 -0.110
 -0.110
 -0.100
 -0.085
 -0.075
 -0.095
 -0.100
 -0.115
 -0.105
 -0.085
 -0.085
 -0.085
 -0.085
 -0.100
 -0.105
 -0.095
 -0.090
 -0.090
 -0.070
 -0.050
 -0.035
 -0.025
 -0.040
 -0.045
 -0.090
 -0.255
 -0.505
 -0.825
 -1.150
 -1.520
 -1.930
 -2.350
 -2.655
 -2.855
 -2.975
 -3.025
 -3.005
 -2.935
 -2.710
 -2.285
 -1.675
 -1.040
 -0.490
 -0.180
 -0.040
  0.050
  0.090
  0.085
  0.075
  0.100
  0.145
  0.165
  0.175
  0.165
  0.155
  0.145
  0.165
  0.175
  0.185
  0.185
  0.195
  0.185
  0.190
  0.200
  0.200
  0.200
  0.180
  0.190
  0.205
  0.215
  0.245
  0.220
  0.215
  0.195
  0.205
  0.235
  0.235
  0.210
  0.195
  0.195
  0.220
  0.235
  0.240
  0.235
  0.225
  0.210
  0.215
  0.220
  0.210
  0.195
  0.205
  0.205
  0.230
  0.255
  0.275
  0.250
  0.220
  0.210
  0.230
  0.230
  0.225
  0.205
  0.215
  0.205
  0.225
  0.210
  0.195
  0.165
  0.150
  0.145
  0.150
  0.155
  0.130
  0.120
  0.095
  0.100
  0.120
  0.105
  0.090
  0.070
  0.065
  0.045
  0.050
  0.040
  0.025
 -0.010
 -0.065
 -0.070
 -0.080
 -0.095
 -0.105
 -0.130
 -0.145
 -0.145
 -0.110
 -0.100
 -0.135
 -0.190
 -0.230
 -0.225
 -0.220
 -0.210
 -0.220
 -0.235
 -0.245
 -0.255
 -0.245
 -0.245
 -0.245
 -0.215
 -0.220
 -0.200
 -0.195
 -0.185
 -0.180
 -0.175
 -0.185
 -0.200
 -0.190
 -0.185
 -0.170
 -0.190
 -0.185
 -0.175
 -0.145
 -0.130
 -0.140
 -0.145
 -0.145
 -0.150
 -0.120
 -0.080
 -0.065
 -0.075
 -0.100
 -0.110
 -0.105
 -0.100
 -0.095
 -0.075
 -0.080
 -0.080
 -0.050
 -0.025
 -0.005
 -0.020
 -0.025
 -0.050
 -0.045
 -0.020
  0.020
  0.035
  0.030
  0.040
  0.055
  0.045
  0.040
  0.025
  0.025
  0.020
  0.055
  0.095
  0.100
  0.075
  0.055
  0.035
  0.045
  0.040
  0.055
  0.055
  0.065
  0.060
  0.065
  0.085
  0.060
  0.020
 -0.005
  0.005
  0.035
  0.045
  0.025
  0.000
 -0.020
 -0.030
 -0.025
 -0.055
 -0.055
 -0.035
 -0.025
 -0.020
  0.005
  0.005
  0.010
 -0.015
 -0.040
 -0.035
 -0.005
  0.020
  0.035
  0.045
  0.045
  0.035
  0.035
  0.020
  0.020
  0.010
  0.015
  0.035
  0.070
  0.075
  0.020
 -0.060
 -0.135
 -0.195
 -0.205
 -0.180
 -0.180
 -0.215
 -0.225
 -0.210
 -0.180
 -0.155
 -0.165
 -0.190
 -0.200
 -0.195
 -0.200
 -0.205
 -0.215
 -0.225
 -0.250
 -0.250
 -0.255
 -0.240
 -0.250
 -0.255
 -0.255
 -0.255
 -0.255
 -0.260
 -0.300
 -0.320
 -0.330
 -0.325
 -0.310
 -0.305
 -0.285
 -0.285
 -0.290
 -0.290
 -0.290
 -0.285
 -0.305
 -0.310
 -0.340
 -0.320
 -0.270
 -0.230
 -0.200
 -0.185
 -0.175
 -0.190
 -0.160
 -0.125
 -0.105
 -0.100
 -0.100
 -0.105
 -0.110
 -0.105
 -0.085
 -0.095
 -0.110
 -0.110
 -0.110
 -0.105
 -0.095
 -0.105
 -0.105
 -0.110
 -0.110
 -0.090
 -0.085
 -0.085
 -0.080
 -0.060
 -0.050
 -0.055
 -0.045
 -0.035
 -0.080
 -0.265
 -0.585
 -0.930
 -1.335
 -1.790
 -2.240
 -2.655
 -2.920
 -3.070
 -3.120
 -3.135
 -3.060
 -2.835
 -2.365
 -1.730
 -1.095
 -0.460
 -0.020
  0.110
  0.160
  0.150
  0.140
  0.115
  0.150
  0.165
  0.180
  0.195
  0.225
  0.225
  0.220
  0.220
  0.235
  0.260
  0.245
  0.220
  0.195
  0.200
  0.235
  0.270
  0.250
  0.205
  0.190
  0.185
  0.225
  0.245
  0.270
  0.240
  0.195
  0.180
  0.165
  0.180
  0.180
  0.160
  0.155
  0.160
  0.185
  0.210
  0.235
  0.235
  0.200
  0.170
  0.180
  0.235
  0.260
  0.280
  0.255
  0.230
  0.250
  0.250
  0.270
  0.275
  0.255
  0.250
  0.250
  0.260
  0.270
  0.260
  0.235
  0.220
  0.220
  0.215
  0.205
  0.180
  0.155
  0.135
  0.120
  0.130
  0.130
  0.080
  0.045
  0.010
 -0.010
 -0.035
 -0.035
 -0.025
 -0.050
 -0.105
 -0.125
 -0.140
 -0.125
 -0.130
 -0.125
 -0.145
 -0.150
 -0.145
 -0.140
 -0.195
 -0.275
 -0.315
 -0.280
 -0.210
 -0.185
 -0.200
 -0.230
 -0.225
 -0.240
 -0.255
 -0.270
 -0.265
 -0.235
 -0.220
 -0.170
 -0.120
 -0.140
 -0.195
 -0.250
 -0.240
 -0.180
 -0.140
 -0.175
 -0.200
 -0.200
 -0.185
 -0.145
 -0.135
 -0.135
 -0.150
 -0.170
 -0.150
 -0.100
 -0.080
 -0.060
 -0.050
 -0.110
 -0.145
 -0.135
 -0.075
 -0.020
  0.000
  0.005
  0.010
 -0.005
 -0.040
 -0.075
 -0.055
 -0.050
 -0.055
 -0.030
 -0.010
 -0.050
 -0.090
 -0.095
 -0.065
 -0.080
 -0.140
 -0.155
 -0.090
  0.020
  0.130
  0.185
  0.175
  0.140
  0.060
 -0.045
 -0.100
 -0.085
 -0.080
 -0.055
 -0.030
 -0.045
 -0.055
 -0.040
 -0.025
 -0.040
 -0.055
 -0.035
 -0.010
  0.020
 -0.010
 -0.090
 -0.155
 -0.195
 -0.185
 -0.110
 -0.115
 -0.195
 -0.265
 -0.210
 -0.080
  0.055
  0.085
  0.055
 -0.010
 -0.055
 -0.115
 -0.150
 -0.125
 -0.045
  0.015
  0.005
 -0.065
 -0.100
 -0.130
 -0.150
 -0.175
 -0.200
 -0.225
 -0.200
 -0.220
 -0.285
 -0.350
 -0.395
 -0.385
 -0.335
 -0.260
 -0.235
 -0.235
 -0.280
 -0.310
 -0.290
 -0.290
 -0.305
 -0.330
 -0.310
 -0.260
 -0.215
 -0.220
 -0.280
 -0.355
 -0.445
 -0.495
 -0.460
 -0.390
 -0.295
 -0.270
 -0.300
 -0.395
 -0.450
 -0.440
 -0.430
 -0.440
 -0.455
 -0.440
 -0.405
 -0.365
 -0.310
 -0.280
 -0.285
 -0.265
 -0.200
 -0.170
 -0.200
 -0.210
 -0.195
 -0.130
 -0.085
 -0.075
 -0.110
 -0.195
 -0.280
 -0.320
 -0.260
 -0.190
 -0.155
 -0.170
 -0.195
 -0.190
 -0.180
 -0.170
 -0.105
 -0.050
 -0.015
 -0.040
 -0.085
 -0.125
 -0.155
 -0.210
 -0.365
 -0.635
 -0.905
 -1.225
 -1.635
 -2.100
 -2.535
 -2.805
 -2.920
 -2.910
 -2.825
 -2.650
 -2.280
 -1.665
 -1.030
 -0.395
 -0.040
  0.000
 -0.015
 -0.020
  0.000
  0.055
  0.080
  0.095
  0.090
  0.085
  0.085
  0.095
  0.120
  0.125
  0.145
  0.150
  0.140
  0.120
  0.115
  0.125
  0.120
  0.115
  0.105
  0.110
  0.130
  0.135
  0.150
  0.135
  0.140
  0.110
  0.120
  0.135
  0.155
  0.175
  0.195
  0.185
  0.170
  0.150
  0.110
  0.080
  0.090
  0.115
  0.105
  0.100
  0.110
  0.110
  0.140
  0.140
  0.105
  0.085
  0.085
  0.070
  0.095
  0.100
  0.095
  0.090
  0.050
  0.035
  0.060
  0.095
  0.110
  0.095
  0.070
  0.030
 -0.010
 -0.025
 -0.035
 -0.050
 -0.065
 -0.080
 -0.070
 -0.070
 -0.075
 -0.105
 -0.130
 -0.150
 -0.150
 -0.160
 -0.155
 -0.165
 -0.170
 -0.195
 -0.210
 -0.235
 -0.260
 -0.280
 -0.280
 -0.270
 -0.260
 -0.260
 -0.260
 -0.280
 -0.280
 -0.290
 -0.260
 -0.250
 -0.235
 -0.230
 -0.235
 -0.235
 -0.240
 -0.215
 -0.220
 -0.230
 -0.235
 -0.220
 -0.210
 -0.180
 -0.160
 -0.180
 -0.165
 -0.175
 -0.165
 -0.140
 -0.130
 -0.125
 -0.140
 -0.155
 -0.135
 -0.120
 -0.100
 -0.070
 -0.075
 -0.080
 -0.070
 -0.055
 -0.040
 -0.055
 -0.055
 -0.050
 -0.025
 -0.010
 -0.015
 -0.030
 -0.050
 -0.045
 -0.015
  0.005
  0.015
  0.020
  0.015
  0.010
  0.040
  0.055
  0.050
  0.040
  0.005
  0.005
  0.015
  0.035
  0.040
  0.020
  0.000
  0.000
  0.020
  0.035
  0.030
  0.010
 -0.025
 -0.050
 -0.030
 -0.005
 -0.020
 -0.045
 -0.065
 -0.070
 -0.045
 -0.025
 -0.025
 -0.030
 -0.015
 -0.025
 -0.015
 -0.020
 -0.025
 -0.045
 -0.040
 -0.030
  0.000
  0.005
  0.015
  0.005
 -0.005
 -0.010
  0.005
  0.015
  0.025
  0.035
  0.025
  0.020
  0.040
  0.040
  0.030
 -0.030
 -0.090
 -0.125
 -0.135
 -0.150
 -0.155
 -0.175
 -0.180
 -0.170
 -0.155
 -0.145
 -0.135
 -0.145
 -0.175
 -0.160
 -0.150
 -0.155
 -0.160
 -0.180
 -0.195
 -0.210
 -0.200
 -0.185
 -0.195
 -0.220
 -0.240
 -0.250
 -0.255
 -0.235
 -0.220
 -0.240
 -0.255
 -0.260
 -0.260
 -0.270
 -0.255
 -0.265
 -0.240
 -0.225
 -0.210
 -0.205
 -0.200
 -0.215
 -0.210
 -0.205
 -0.165
 -0.150
 -0.125
 -0.105
 -0.095
 -0.065
 -0.035
 -0.015
 -0.030
 -0.050
 -0.065
 -0.050
 -0.020
 -0.025
 -0.015
 -0.030
 -0.060
 -0.075
 -0.075
 -0.070
 -0.075
 -0.060
 -0.050
 -0.020
  0.020
  0.030
  0.005
 -0.030
 -0.045
 -0.135
 -0.385
 -0.700
 -1.040
 -1.420
 -1.870
 -2.275
 -2.575
 -2.730
 -2.780
 -2.770
 -2.675
 -2.480
 -2.095
 -1.515
 -0.880
 -0.400
 -0.145
 -0.035
  0.025
  0.075
  0.075
  0.095
  0.105
  0.125
  0.145
  0.155
  0.160
  0.135
  0.150
  0.160
  0.180
  0.205
  0.195
  0.200
  0.195
  0.190
  0.205
  0.220
  0.240
  0.230
  0.205
  0.195
  0.200
  0.205
  0.205
  0.200
  0.190
  0.190
  0.205
  0.215
  0.215
  0.220
  0.195
  0.185
  0.195
  0.195
  0.205
  0.225
  0.220
  0.225
  0.240
  0.230
  0.235
  0.225
  0.210
  0.205
  0.215
  0.225
  0.225
  0.215
  0.205
  0.195
  0.200
  0.185
  0.185
  0.175
  0.160
  0.145
  0.160
  0.165
  0.150
  0.140
  0.110
  0.095
  0.105
  0.100
  0.085
  0.065
  0.020
 -0.010
 -0.010
 -0.005
 -0.020
 -0.025
 -0.040
 -0.050
 -0.055
 -0.050
 -0.050
 -0.085
 -0.125
 -0.130
 -0.140
 -0.125
 -0.125
 -0.155
 -0.160
 -0.160
 -0.145
 -0.145
 -0.170
 -0.165
 -0.190
 -0.185
 -0.160
 -0.150
 -0.150
 -0.155
 -0.175
 -0.185
 -0.140
 -0.110
 -0.095
 -0.085
 -0.090
 -0.080
 -0.075
 -0.090
 -0.085
 -0.090
 -0.095
 -0.085
 -0.090
 -0.080
 -0.080
 -0.065
 -0.055
 -0.065
 -0.045
 -0.030
 -0.055
 -0.040
 -0.040
 -0.025
  0.005
  0.020
  0.020
  0.015
 -0.005
 -0.015
  0.010
  0.020
  0.040
  0.045
  0.050
  0.035
  0.050
  0.065
  0.070
  0.070
  0.065
  0.065
  0.075
  0.080
  0.075
  0.065
  0.050
  0.065
  0.090
  0.100
  0.085
  0.095
  0.065
  0.085
  0.075
  0.080
  0.060
  0.050
  0.035
  0.030
  0.045
  0.040
  0.035
  0.025
  0.010
  0.000
  0.030
  0.035
  0.045
  0.030
  0.020
  0.005
  0.000
  0.005
  0.020
  0.030
  0.020
  0.010
  0.025
  0.045
  0.050
  0.050
  0.045
  0.035
  0.035
  0.035
  0.070
  0.080
  0.065
  0.055
  0.085
  0.100
  0.065
  0.015
 -0.070
 -0.115
 -0.135
 -0.120
 -0.125
 -0.125
 -0.165
 -0.175
 -0.160
 -0.150
 -0.135
 -0.140
 -0.155
 -0.150
 -0.165
 -0.165
 -0.175
 -0.175
 -0.205
 -0.210
 -0.190
 -0.175
 -0.170
 -0.190
 -0.220
 -0.235
 -0.230
 -0.245
 -0.255
 -0.265
 -0.280
 -0.300
 -0.300
 -0.265
 -0.260
 -0.270
 -0.300
 -0.285
 -0.245
 -0.225
 -0.205
 -0.195
 -0.195
 -0.200
 -0.180
 -0.155
 -0.120
 -0.110
 -0.100
 -0.095
 -0.070
 -0.055
 -0.055
 -0.065
 -0.075
 -0.070
 -0.055
 -0.050
 -0.055
 -0.065
 -0.065
 -0.065
 -0.055
 -0.045
 -0.040
 -0.045
 -0.030
 -0.025
 -0.015
 -0.015
 -0.020
 -0.035
 -0.080
 -0.285
 -0.570
 -0.875
 -1.170
 -1.550
 -1.975
 -2.410
 -2.725
 -2.910
 -2.945
 -2.890
 -2.675
 -2.245
 -1.610
 -0.975
 -0.340
  0.040
  0.125
  0.155
  0.170
  0.190
  0.190
  0.195
  0.200
  0.225
  0.230
  0.200
  0.180
  0.170
  0.185
  0.195
  0.215
  0.230
  0.240
  0.235
  0.220
  0.210
  0.210
  0.215
  0.235
  0.220
  0.195
  0.180
  0.205
  0.235
  0.245
  0.230
  0.225
  0.225
  0.215
  0.220
  0.205
  0.200
  0.170
  0.145
  0.160
  0.185
  0.225
  0.230
  0.230
  0.215
  0.225
  0.210
  0.200
  0.165
  0.160
  0.185
  0.200
  0.200
  0.185
  0.170
  0.175
  0.175
  0.200
  0.190
  0.160
  0.120
  0.085
  0.075
  0.085
  0.065
  0.050
  0.025
  0.000
 -0.010
 -0.010
 -0.015
 -0.030
 -0.070
 -0.110
 -0.125
 -0.115
 -0.110
 -0.105
 -0.140
 -0.190
 -0.220
 -0.210
 -0.190
 -0.160
 -0.170
 -0.195
 -0.240
 -0.250
 -0.255
 -0.235
 -0.250
 -0.280
 -0.295
 -0.270
 -0.225
 -0.225
 -0.210
 -0.215
 -0.235
 -0.255
 -0.265
 -0.240
 -0.230
 -0.230
 -0.230
 -0.225
 -0.220
 -0.195
 -0.200
 -0.190
 -0.200
 -0.185
 -0.175
 -0.130
 -0.130
 -0.125
 -0.155
 -0.160
 -0.145
 -0.135
 -0.125
 -0.135
 -0.130
 -0.125
 -0.115
 -0.095
 -0.085
 -0.090
 -0.080
 -0.055
 -0.035
 -0.020
 -0.035
 -0.065
 -0.060
 -0.040
  0.000
  0.015
  0.020
  0.005
  0.000
 -0.025
 -0.030
 -0.025
 -0.015
 -0.015
 -0.045
 -0.040
 -0.045
 -0.035
 -0.015
 -0.035
 -0.060
 -0.075
 -0.065
 -0.055
 -0.055
 -0.060
 -0.055
 -0.075
 -0.105
 -0.110
 -0.115
 -0.115
 -0.140
 -0.135
 -0.125
 -0.130
 -0.135
 -0.125
 -0.110
 -0.070
 -0.050
 -0.060
 -0.040
 -0.040
 -0.070
 -0.100
 -0.125
 -0.140
 -0.110
 -0.065
 -0.030
 -0.015
 -0.020
 -0.065
 -0.145
 -0.230
 -0.290
 -0.295
 -0.270
 -0.260
 -0.265
 -0.300
 -0.320
 -0.315
 -0.265
 -0.210
 -0.200
 -0.240
 -0.290
 -0.285
 -0.255
 -0.260
 -0.300
 -0.365
 -0.400
 -0.385
 -0.340
 -0.285
 -0.280
 -0.330
 -0.390
 -0.400
 -0.375
 -0.345
 -0.335
 -0.355
 -0.395
 -0.400
 -0.370
 -0.310
 -0.325
 -0.375
 -0.390
 -0.395
 -0.390
 -0.385
 -0.355
 -0.340
 -0.330
 -0.320
 -0.295
 -0.270
 -0.260
 -0.235
 -0.205
 -0.185
 -0.170
 -0.145
 -0.155
 -0.160
 -0.150
 -0.135
 -0.125
 -0.150
 -0.180
 -0.180
 -0.190
 -0.190
 -0.170
 -0.165
 -0.185
 -0.180
 -0.150
 -0.130
 -0.165
 -0.215
 -0.225
 -0.280
 -0.490
 -0.780
 -1.065
 -1.370
 -1.755
 -2.185
 -2.565
 -2.830
 -2.965
 -2.995
 -2.975
 -2.885
 -2.655
 -2.185
 -1.550
 -0.915
 -0.305
 -0.095
 -0.010
  0.035
  0.050
  0.005
  0.000
  0.050
  0.085
  0.085
  0.085
  0.080
  0.055
  0.030
  0.020
  0.045
  0.085
  0.120
  0.125
  0.120
  0.120
  0.105
  0.100
  0.100
  0.100
  0.110
  0.065
  0.060
  0.080
  0.100
  0.095
  0.080
  0.080
  0.090
  0.090
  0.125
  0.140
  0.115
  0.115
  0.125
  0.110
  0.105
  0.100
  0.080
  0.100
  0.120
  0.140
  0.115
  0.100
  0.060
  0.045
  0.090
  0.120
  0.135
  0.115
  0.095
  0.080
  0.100
  0.100
  0.075
  0.040
  0.030
  0.030
  0.020
  0.035
  0.040
  0.035
  0.005
 -0.020
 -0.055
 -0.055
 -0.030
 -0.050
 -0.075
 -0.070
 -0.045
 -0.060
 -0.080
 -0.110
 -0.135
 -0.150
 -0.155
 -0.160
 -0.220
 -0.235
 -0.270
 -0.270
 -0.275
 -0.270
 -0.270
 -0.245
 -0.265
 -0.290
 -0.285
 -0.270
 -0.270
 -0.275
 -0.305
 -0.315
 -0.305
 -0.275
 -0.250
 -0.255
 -0.255
 -0.265
 -0.270
 -0.255
 -0.245
 -0.240
 -0.220
 -0.210
 -0.220
 -0.230
 -0.220
 -0.205
 -0.205
 -0.195
 -0.190
 -0.185
 -0.175
 -0.160
 -0.150
 -0.160
 -0.160
 -0.135
 -0.135
 -0.140
 -0.150
 -0.135
 -0.135
 -0.125
 -0.100
 -0.080
 -0.090
 -0.105
 -0.130
 -0.095
 -0.060
 -0.060
 -0.070
 -0.090
 -0.075
 -0.050
  0.000
 -0.005
 -0.025
 -0.055
 -0.060
 -0.025
 -0.005
 -0.030
 -0.035
 -0.025
 -0.010
 -0.005
  0.010
  0.005
  0.010
 -0.010
 -0.005
  0.010
  0.050
  0.065
  0.060
  0.055
  0.030
  0.005
 -0.035
 -0.060
 -0.065
 -0.035
  0.005
  0.035
  0.025
  0.015
  0.005
  0.000
  0.000
  0.005
 -0.005
  0.015
 -0.015
 -0.040
 -0.040
 -0.045
 -0.020
 -0.025
 -0.050
 -0.075
 -0.070
 -0.030
 -0.005
 -0.005
  0.010
 -0.010
 -0.030
 -0.015
  0.015
  0.030
  0.025
  0.015
 -0.005
 -0.065
 -0.135
 -0.160
 -0.175
 -0.195
 -0.210
 -0.200
 -0.195
 -0.195
 -0.225
 -0.245
 -0.250
 -0.235
 -0.225
 -0.200
 -0.180
 -0.170
 -0.190
 -0.185
 -0.200
 -0.225
 -0.250
 -0.245
 -0.275
 -0.280
 -0.275
 -0.265
 -0.265
 -0.265
 -0.275
 -0.285
 -0.305
 -0.310
 -0.325
 -0.305
 -0.295
 -0.295
 -0.290
 -0.280
 -0.295
 -0.300
 -0.285
 -0.260
 -0.220
 -0.215
 -0.210
 -0.220
 -0.195
 -0.170
 -0.140
 -0.125
 -0.115
 -0.085
 -0.080
 -0.070
 -0.050
 -0.060
 -0.085
 -0.105
 -0.095
 -0.095
 -0.080
 -0.065
 -0.080
 -0.080
 -0.110
 -0.105
 -0.080
 -0.040
 -0.040
 -0.080
 -0.090
 -0.100
 -0.070
 -0.060
 -0.230
 -0.560
 -0.885
 -1.205
 -1.560
 -1.910
 -2.260
 -2.585
 -2.840
 -2.975
 -3.020
 -2.965
 -2.800
 -2.395
 -1.760
 -1.125
 -0.490
  0.095
  0.190
  0.195
  0.195
  0.195
  0.190
  0.215
  0.245
  0.245
  0.260
  0.270
  0.255
  0.220
  0.205
  0.195
  0.195
  0.210
  0.220
  0.235
  0.240
  0.235
  0.240
  0.240
  0.240
  0.225
  0.235
  0.250
  0.275
  0.300
  0.280
  0.255
  0.230
  0.235
  0.260
  0.260
  0.265
  0.245
  0.235
  0.235
  0.250
  0.255
  0.250
  0.270
  0.260
  0.255
  0.270
  0.265
  0.250
  0.240
  0.230
  0.230
  0.215
  0.195
  0.185
  0.195
  0.220
  0.225
  0.195
  0.185
  0.145
  0.140
  0.135
  0.120
  0.105
  0.105
  0.105
  0.115
  0.105
  0.115
  0.095
  0.085
  0.050
  0.030
  0.005
 -0.035
 -0.075
 -0.075
 -0.095
 -0.100
 -0.130
 -0.140
 -0.140
 -0.140
 -0.135
 -0.150
 -0.150
 -0.175
 -0.190
 -0.210
 -0.230
 -0.220
 -0.215
 -0.210
 -0.200
 -0.175
 -0.185
 -0.230
 -0.255
 -0.250
 -0.215
 -0.175
 -0.160
 -0.145
 -0.140
 -0.150
 -0.130
 -0.125
 -0.125
 -0.135
 -0.120
 -0.130
 -0.115
 -0.120
 -0.120
 -0.125
 -0.145
 -0.135
 -0.100
 -0.065
 -0.060
 -0.070
 -0.055
 -0.040
 -0.025
 -0.015
 -0.020
 -0.035
 -0.045
 -0.035
 -0.040
 -0.030
 -0.035
 -0.030
 -0.035
 -0.030
 -0.010
 -0.005
  0.000
  0.000
  0.010
  0.020
  0.040
  0.055
  0.055
  0.030
  0.035
  0.035
  0.050
  0.050
  0.060
  0.030
  0.005
  0.005
  0.010
  0.035
  0.050
  0.050
  0.040
  0.010
  0.005
  0.005
  0.025
  0.035
  0.030
  0.005
 -0.010
 -0.020
 -0.015
 -0.020
 -0.010
 -0.005
 -0.010
 -0.020
 -0.020
 -0.025
 -0.035
 -0.030
 -0.025
 -0.010
 -0.015
  0.010
  0.025
 -0.010
 -0.040
 -0.035
  0.000
  0.055
  0.070
  0.045
  0.035
  0.010
  0.020
  0.040
  0.040
  0.045
  0.050
  0.060
  0.070
  0.065
  0.025
 -0.045
 -0.100
 -0.135
 -0.160
 -0.175
 -0.195
 -0.200
 -0.175
 -0.150
 -0.155
 -0.150
 -0.155
 -0.160
 -0.155
 -0.165
 -0.190
 -0.225
 -0.235
 -0.230
 -0.215
 -0.205
 -0.195
 -0.200
 -0.220
 -0.235
 -0.245
 -0.250
 -0.260
 -0.260
 -0.255
 -0.265
 -0.255
 -0.250
 -0.270
 -0.300
 -0.290
 -0.285
 -0.290
 -0.285
 -0.280
 -0.270
 -0.275
 -0.270
 -0.275
 -0.285
 -0.285
 -0.280
 -0.295
 -0.290
 -0.240
 -0.195
 -0.170
 -0.135
 -0.115
 -0.165
 -0.175
 -0.150
 -0.105
 -0.065
 -0.055
 -0.065
 -0.090
 -0.080
 -0.065
 -0.075
 -0.100
 -0.115
 -0.105
 -0.095
 -0.065
 -0.060
 -0.050
 -0.060
 -0.045
 -0.060
 -0.045
 -0.040
 -0.040
 -0.060
 -0.075
 -0.085
 -0.100
 -0.085
 -0.170
 -0.375
 -0.640
 -0.880
 -1.170
 -1.510
 -1.905
 -2.305
 -2.610
 -2.805
 -2.900
 -2.920
 -2.895
 -2.800
 -2.560
 -2.125
 -1.490
 -0.855
 -0.285
 -0.045
  0.055
  0.130
  0.155
  0.140
  0.120
  0.130
  0.165
  0.190
  0.205
  0.190
  0.200
  0.165
  0.170
  0.190
  0.220
  0.215
  0.235
  0.240
  0.235
  0.240
  0.215
  0.185
  0.160
  0.170
  0.165
  0.185
  0.195
  0.225
  0.225
  0.215
  0.220
  0.225
  0.225
  0.200
  0.195
  0.180
  0.185
  0.210
  0.220
  0.205
  0.190
  0.185
  0.185
  0.205
  0.230
  0.255
  0.245
  0.235
  0.215
  0.205
  0.200
  0.190
  0.155
  0.120
  0.135
  0.160
  0.175
  0.200
  0.190
  0.175
  0.180
  0.195
  0.185
  0.160
  0.110
  0.075
  0.055
  0.065
  0.095
  0.100
  0.080
  0.020
  0.045
  0.045
  0.055
  0.030
 -0.010
 -0.025
 -0.035
 -0.065
 -0.065
 -0.090
 -0.120
 -0.140
 -0.140
 -0.115
 -0.120
 -0.120
 -0.155
 -0.190
 -0.220
 -0.230
 -0.205
 -0.185
 -0.175
 -0.170
 -0.155
 -0.145
 -0.155
 -0.175
 -0.210
 -0.220
 -0.215
 -0.200
 -0.170
 -0.170
 -0.180
 -0.155
 -0.130
 -0.135
 -0.145
 -0.150
 -0.190
 -0.205
 -0.190
 -0.155
 -0.130
 -0.090
 -0.085
 -0.080
 -0.060
 -0.055
 -0.060
 -0.075
 -0.085
 -0.085
 -0.065
 -0.050
 -0.030
 -0.030
 -0.050
 -0.055
 -0.060
 -0.070
 -0.065
 -0.035
 -0.030
 -0.025
  0.000
  0.025
  0.040
  0.030
  0.005
 -0.010
  0.000
  0.005
  0.035
  0.035
  0.030
  0.030
  0.045
  0.060
  0.075
  0.080
  0.085
  0.070
  0.055
  0.060
  0.060
  0.065
  0.035
  0.005
  0.015
  0.050
  0.070
  0.080
  0.060
  0.025
  0.015
  0.040
  0.055
  0.035
  0.025
  0.015
  0.050
  0.045
  0.055
  0.065
  0.050
  0.025
  0.005
 -0.005
  0.005
  0.020
  0.035
  0.025
  0.030
  0.035
  0.045
  0.035
  0.005
 -0.045
 -0.040
 -0.015
  0.015
  0.035
  0.040
  0.060
  0.075
  0.085
  0.090
  0.090
  0.060
  0.050
  0.045
  0.065
  0.080
  0.040
 -0.015
 -0.065
 -0.125
 -0.150
 -0.160
 -0.175
 -0.200
 -0.200
 -0.180
 -0.165
 -0.145
 -0.130
 -0.135
 -0.145
 -0.145
 -0.140
 -0.155
 -0.165
 -0.195
 -0.205
 -0.205
 -0.180
 -0.170
 -0.175
 -0.180
 -0.175
 -0.160
 -0.170
 -0.170
 -0.195
 -0.260
 -0.340
 -0.355
 -0.315
 -0.290
 -0.280
 -0.300
 -0.310
 -0.310
 -0.290
 -0.290
 -0.280
 -0.285
 -0.285
 -0.270
 -0.245
 -0.235
 -0.220
 -0.210
 -0.215
 -0.205
 -0.155
 -0.115
 -0.075
 -0.075
 -0.085
 -0.045
 -0.020
  0.005
 -0.010
 -0.025
 -0.045
 -0.040
 -0.060
 -0.060
 -0.055
 -0.070
 -0.095
 -0.075
 -0.035
 -0.020
 -0.025
 -0.045
 -0.075
 -0.055
 -0.020
  0.000
 -0.020
 -0.045
 -0.055
 -0.010
  0.000
 -0.130
 -0.405
 -0.710
 -1.025
 -1.370
 -1.750
 -2.165
 -2.505
 -2.745
 -2.845
 -2.845
 -2.755
 -2.540
 -2.175
 -1.575
 -0.940
 -0.390
 -0.060
  0.080
  0.145
  0.170
  0.135
  0.095
  0.110
  0.180
  0.230
  0.240
  0.205
  0.190
  0.180
  0.185
  0.190
  0.195
  0.180
  0.195
  0.220
  0.245
  0.255
  0.225
  0.220
  0.225
  0.235
  0.255
  0.240
  0.200
  0.185
  0.175
  0.200
  0.205
  0.210
  0.200
  0.200
  0.210
  0.235
  0.215
  0.220
  0.235
  0.225
  0.205
  0.210
  0.220
  0.240
  0.205
  0.180
  0.165
  0.165
  0.175
  0.180
  0.195
  0.190
  0.205
  0.210
  0.210
  0.200
  0.195
  0.180
  0.190
  0.195
  0.210
  0.215
  0.220
  0.220
  0.190
  0.170
  0.155
  0.155
  0.135
  0.125
  0.120
  0.105
  0.090
  0.085
  0.070
  0.060
  0.055
  0.040
  0.035
  0.025
  0.000
 -0.025
 -0.035
 -0.040
 -0.040
 -0.065
 -0.110
 -0.125
 -0.110
 -0.100
 -0.110
 -0.140
 -0.145
 -0.145
 -0.135
 -0.125
 -0.115
 -0.135
 -0.155
 -0.160
 -0.175
 -0.165
 -0.145
 -0.150
 -0.165
 -0.200
 -0.235
 -0.235
 -0.215
 -0.195
 -0.170
 -0.140
 -0.105
 -0.110
 -0.135
 -0.145
 -0.135
 -0.150
 -0.110
 -0.110
 -0.085
 -0.070
 -0.070
 -0.085
 -0.080
 -0.075
 -0.080
 -0.085
 -0.050
 -0.045
 -0.060
 -0.080
 -0.070
 -0.055
 -0.035
 -0.035
 -0.015
  0.000
  0.020
  0.035
  0.000
 -0.015
  0.020
  0.050
  0.045
  0.010
  0.005
  0.010
  0.055
  0.065
  0.080
  0.095
  0.090
  0.065
  0.075
  0.090
  0.080
  0.080
  0.055
  0.050
  0.040
  0.050
  0.060
  0.070
  0.065
  0.060
  0.070
  0.075
  0.085
  0.075
  0.050
  0.015
  0.005
 -0.005
  0.015
  0.015
  0.000
  0.000
  0.035
  0.055
  0.030
  0.015
 -0.010
 -0.020
  0.030
  0.045
  0.065
  0.045
  0.015
  0.015
  0.055
  0.070
  0.080
  0.095
  0.090
  0.070
  0.070
  0.055
  0.080
  0.080
  0.030
 -0.065
 -0.125
 -0.165
 -0.165
 -0.140
 -0.135
 -0.135
 -0.140
 -0.150
 -0.150
 -0.145
 -0.155
 -0.175
 -0.195
 -0.185
 -0.180
 -0.130
 -0.140
 -0.190
 -0.205
 -0.200
 -0.210
 -0.190
 -0.205
 -0.215
 -0.215
 -0.215
 -0.210
 -0.215
 -0.245
 -0.240
 -0.245
 -0.245
 -0.240
 -0.240
 -0.240
 -0.235
 -0.195
 -0.170
 -0.145
 -0.145
 -0.145
 -0.155
 -0.140
 -0.100
 -0.080
 -0.070
 -0.080
 -0.060
 -0.045
 -0.005
  0.015
  0.005
 -0.045
 -0.060
 -0.025
  0.000
 -0.005
 -0.015
 -0.035
 -0.050
 -0.035
 -0.005
  0.005
  0.010
 -0.010
  0.015
  0.030
  0.030
  0.005
  0.000
  0.010
 -0.030
 -0.205
 -0.485
 -0.760
 -1.055
 -1.405
 -1.805
 -2.165
 -2.460
 -2.690
 -2.840
 -2.890
 -2.840
 -2.565
 -1.960
 -1.325
 -0.690
 -0.055
  0.210
  0.230
  0.220
  0.205
  0.210
  0.220
  0.230
  0.260
  0.295
  0.305
  0.310
  0.305
  0.275
  0.250
  0.265
  0.285
  0.290
  0.295
  0.280
  0.275
  0.265
  0.265
  0.245
  0.225
  0.195
  0.215
  0.255
  0.295
  0.330
  0.320
  0.280
  0.275
  0.315
  0.330
  0.315
  0.275
  0.260
  0.250
  0.270
  0.280
  0.295
  0.265
  0.255
  0.250
  0.265
  0.275
  0.270
  0.280
  0.285
  0.295
  0.315
  0.295
  0.300
  0.280
  0.275
  0.260
  0.285
  0.285
  0.255
  0.240
  0.230
  0.225
  0.240
  0.265
  0.240
  0.210
  0.185
  0.180
  0.190
  0.220
  0.190
  0.150
  0.120
  0.110
  0.100
  0.080
  0.020
 -0.025
 -0.045
 -0.050
 -0.045
 -0.035
 -0.030
 -0.060
 -0.070
 -0.075
 -0.080
 -0.090
 -0.115
 -0.160
 -0.180
 -0.180
 -0.175
 -0.160
 -0.165
 -0.160
 -0.145
 -0.150
 -0.155
 -0.150
 -0.125
 -0.125
 -0.135
 -0.115
 -0.100
 -0.095
 -0.120
 -0.120
 -0.140
 -0.115
 -0.095
 -0.080
 -0.100
 -0.140
 -0.125
 -0.095
 -0.060
 -0.050
 -0.055
 -0.095
 -0.100
 -0.060
 -0.040
 -0.025
 -0.025
 -0.040
 -0.040
 -0.040
 -0.040
 -0.025
 -0.010
  0.000
 -0.010
 -0.015
  0.020
  0.055
  0.060
  0.045
  0.020
  0.030
  0.075
  0.085
  0.060
  0.065
  0.070
  0.075
  0.075
  0.075
  0.070
  0.040
  0.015
  0.030
  0.060
  0.070
  0.070
  0.090
  0.085
  0.070
  0.075
  0.085
  0.080
  0.070
  0.045
  0.030
  0.030
  0.040
  0.040
  0.015
  0.010
  0.010
  0.035
  0.050
  0.030
  0.005
  0.015
  0.035
  0.045
  0.030
  0.000
 -0.005
 -0.020
 -0.035
 -0.020
  0.040
  0.070
  0.060
  0.030
  0.000
  0.020
  0.070
  0.075
  0.070
  0.055
  0.040
  0.040
  0.050
  0.055
  0.045
  0.050
  0.085
  0.140
  0.140
  0.090
  0.005
 -0.075
 -0.135
 -0.155
 -0.160
 -0.175
 -0.180
 -0.160
 -0.125
 -0.085
 -0.060
 -0.075
 -0.135
 -0.190
 -0.225
 -0.200
 -0.140
 -0.125
 -0.140
 -0.160
 -0.175
 -0.180
 -0.185
 -0.210
 -0.240
 -0.235
 -0.210
 -0.175
 -0.145
 -0.175
 -0.220
 -0.240
 -0.255
 -0.250
 -0.240
 -0.230
 -0.225
 -0.210
 -0.235
 -0.220
 -0.195
 -0.195
 -0.190
 -0.180
 -0.170
 -0.125
 -0.095
 -0.090
 -0.095
 -0.120
 -0.100
 -0.065
 -0.030
 -0.020
 -0.030
 -0.020
 -0.020
 -0.015
  0.000
  0.005
  0.005
 -0.005
 -0.030
 -0.035
 -0.040
 -0.025
 -0.025
 -0.005
 -0.020
 -0.045
 -0.060
 -0.040
 -0.040
 -0.190
 -0.490
 -0.795
 -1.090
 -1.450
 -1.885
 -2.290
 -2.585
 -2.735
 -2.765
 -2.725
 -2.590
 -2.245
 -1.620
 -0.985
 -0.350
  0.050
  0.155
  0.205
  0.190
  0.165
  0.150
  0.200
  0.210
  0.210
  0.230
  0.250
  0.270
  0.270
  0.245
  0.225
  0.225
  0.255
  0.275
  0.260
  0.230
  0.225
  0.235
  0.270
  0.285
  0.275
  0.270
  0.260
  0.250
  0.240
  0.255
  0.285
  0.295
  0.260
  0.235
  0.260
  0.270
  0.270
  0.285
  0.285
  0.265
  0.290
  0.280
  0.255
  0.240
  0.230
  0.235
  0.285
  0.315
  0.315
  0.275
  0.240
  0.240
  0.260
  0.275
  0.280
  0.270
  0.255
  0.255
  0.255
  0.255
  0.235
  0.195
  0.170
  0.155
  0.175
  0.190
  0.155
  0.140
  0.115
  0.095
  0.100
  0.080
  0.060
  0.055
  0.050
  0.030
  0.030
  0.030
 -0.020
 -0.030
 -0.030
 -0.045
 -0.055
 -0.050
 -0.040
 -0.060
 -0.080
 -0.115
 -0.100
 -0.100
 -0.115
 -0.120
 -0.125
 -0.130
 -0.145
 -0.125
 -0.135
 -0.120
 -0.125
 -0.110
 -0.085
 -0.060
 -0.060
 -0.095
 -0.105
 -0.095
 -0.050
 -0.030
 -0.025
 -0.020
 -0.020
 -0.010
 -0.005
 -0.005
  0.000
  0.000
  0.010
  0.005
 -0.005
  0.005
 -0.005
 -0.010
 -0.020
 -0.015
  0.025
  0.055
  0.075
  0.070
  0.075
  0.050
  0.080
  0.070
  0.060
  0.050
  0.060
  0.100
  0.125
  0.125
  0.130
  0.125
  0.125
  0.130
  0.140
  0.140
  0.125
  0.120
  0.140
  0.145
  0.160
  0.175
  0.175
  0.165
  0.170
  0.150
  0.135
  0.140
  0.145
  0.125
  0.120
  0.095
  0.120
  0.125
  0.140
  0.135
  0.135
  0.140
  0.145
  0.140
  0.120
  0.090
  0.060
  0.065
  0.090
  0.110
  0.110
  0.080
  0.060
  0.035
  0.065
  0.090
  0.110
  0.105
  0.110
  0.080
  0.090
  0.120
  0.135
  0.145
  0.130
  0.125
  0.130
  0.115
  0.130
  0.135
  0.145
  0.155
  0.160
  0.120
  0.040
 -0.035
 -0.070
 -0.095
 -0.090
 -0.090
 -0.075
 -0.090
 -0.090
 -0.080
 -0.085
 -0.085
 -0.080
 -0.105
 -0.095
 -0.110
 -0.070
 -0.055
 -0.065
 -0.075
 -0.115
 -0.150
 -0.150
 -0.150
 -0.145
 -0.155
 -0.160
 -0.175
 -0.160
 -0.160
 -0.155
 -0.180
 -0.185
 -0.205
 -0.210
 -0.180
 -0.155
 -0.135
 -0.150
 -0.170
 -0.150
 -0.130
 -0.120
 -0.125
 -0.135
 -0.130
 -0.095
 -0.060
 -0.045
 -0.070
 -0.065
 -0.040
  0.010
  0.045
  0.035
  0.000
 -0.020
 -0.010
  0.005
  0.030
  0.035
  0.035
  0.010
  0.015
  0.040
  0.045
  0.050
  0.030
  0.040
  0.055
  0.110
  0.110
  0.100
  0.100
  0.085
 -0.065
 -0.325
 -0.625
 -0.980
 -1.420
 -1.905
 -2.345
 -2.620
 -2.745
 -2.755
 -2.675
 -2.445
 -1.975
 -1.340
 -0.705
 -0.070
  0.240
  0.270
  0.275
  0.245
  0.210
  0.210
  0.225
  0.250
  0.265
  0.285
  0.305
  0.300
  0.285
  0.265
  0.250
  0.290
  0.325
  0.355
  0.335
  0.295
  0.265
  0.260
  0.290
  0.310
  0.290
  0.270
  0.280
  0.290
  0.310
  0.325
  0.325
  0.300
  0.265
  0.275
  0.280
  0.285
  0.275
  0.290
  0.315
  0.325
  0.315
  0.295
  0.280
  0.270
  0.260
  0.265
  0.295
  0.315
  0.315
  0.315
  0.285
  0.260
  0.245
  0.255
  0.270
  0.260
  0.235
  0.215
  0.195
  0.175
  0.180
  0.190
  0.205
  0.225
  0.230
  0.200
  0.150
  0.125
  0.110
  0.130
  0.100
  0.080
  0.055
  0.040
  0.000
 -0.020
 -0.060
 -0.060
 -0.045
 -0.035
 -0.020
 -0.020
 -0.030
 -0.030
 -0.065
 -0.100
 -0.120
 -0.080
 -0.065
 -0.075
 -0.085
 -0.100
 -0.115
 -0.120
 -0.110
 -0.100
 -0.105
 -0.120
 -0.105
 -0.075
 -0.050
 -0.060
 -0.085
 -0.085
 -0.050
 -0.010
  0.015
  0.015
  0.015
 -0.030
 -0.055
 -0.030
  0.020
  0.015
 -0.035
 -0.065
 -0.050
 -0.005
  0.040
  0.045
  0.015
  0.020
  0.045
  0.070
  0.090
  0.095
  0.080
  0.075
  0.080
  0.105
  0.125
  0.135
  0.135
  0.135
  0.150
  0.155
  0.170
  0.165
  0.170
  0.175
  0.165
  0.165
  0.180
  0.165
  0.135
  0.075
  0.075
  0.110
  0.175
  0.205
  0.175
  0.155
  0.150
  0.135
  0.110
  0.100
  0.085
  0.060
  0.060
  0.085
  0.095
  0.085
  0.055
  0.065
  0.085
  0.085
  0.095
  0.110
  0.115
  0.080
  0.085
  0.115
  0.165
  0.185
  0.170
  0.120
  0.100
  0.095
  0.120
  0.135
  0.150
  0.150
  0.175
  0.145
  0.090
  0.010
 -0.080
 -0.120
 -0.135
 -0.080
 -0.040
 -0.040
 -0.070
 -0.100
 -0.115
 -0.100
 -0.085
 -0.100
 -0.115
 -0.115
 -0.115
 -0.095
 -0.100
 -0.100
 -0.120
 -0.145
 -0.185
 -0.175
 -0.160
 -0.180
 -0.195
 -0.225
 -0.225
 -0.195
 -0.195
 -0.185
 -0.185
 -0.175
 -0.150
 -0.135
 -0.145
 -0.155
 -0.140
 -0.135
 -0.110
 -0.065
 -0.025
 -0.025
 -0.030
 -0.045
 -0.040
 -0.005
  0.065
  0.090
  0.075
  0.065
  0.050
  0.050
  0.055
  0.035
  0.020
  0.020
 -0.005
  0.020
  0.065
  0.075
  0.065
  0.035
  0.010
  0.030
  0.080
  0.065
 -0.140
 -0.490
 -0.795
 -1.075
 -1.395
 -1.825
 -2.275
 -2.620
 -2.750
 -2.730
 -2.570
 -2.200
 -1.565
 -0.930
 -0.295
  0.200
  0.285
  0.290
  0.285
  0.265
  0.290
  0.325
  0.350
  0.335
  0.280
  0.280
  0.295
  0.330
  0.325
  0.320
  0.325
  0.325
  0.310
  0.330
  0.330
  0.335
  0.335
  0.340
  0.335
  0.335
  0.325
  0.320
  0.315
  0.325
  0.300
  0.310
  0.310
  0.360
  0.370
  0.375
  0.345
  0.320
  0.300
  0.280
  0.280
  0.275
  0.305
  0.335
  0.325
  0.315
  0.310
  0.275
  0.270
  0.290
  0.315
  0.325
  0.320
  0.320
  0.290
  0.280
  0.270
  0.255
  0.240
  0.210
  0.205
  0.255
  0.255
  0.225
  0.190
  0.160
  0.120
  0.095
  0.100
  0.125
  0.125
  0.110
  0.085
  0.070
  0.040
  0.020
  0.000
 -0.040
 -0.050
 -0.050
 -0.055
 -0.085
 -0.095
 -0.115
 -0.100
 -0.095
 -0.060
 -0.045
 -0.025
 -0.020
 -0.035
 -0.045
 -0.065
 -0.110
 -0.150
 -0.165
 -0.145
 -0.105
 -0.060
 -0.035
 -0.025
 -0.015
 -0.015
 -0.010
  0.010
  0.005
 -0.010
 -0.040
 -0.065
 -0.030
  0.005
  0.010
 -0.005
 -0.015
 -0.015
  0.000
  0.005
  0.005
  0.000
  0.000
  0.030
  0.065
  0.095
  0.075
  0.075
  0.060
  0.040
  0.065
  0.075
  0.085
  0.085
  0.085
  0.080
  0.125
  0.135
  0.150
  0.140
  0.140
  0.125
  0.110
  0.125
  0.130
  0.140
  0.135
  0.155
  0.165
  0.155
  0.160
  0.130
  0.110
  0.120
  0.125
  0.120
  0.130
  0.130
  0.135
  0.135
  0.120
  0.125
  0.095
  0.065
  0.060
  0.065
  0.080
  0.105
  0.095
  0.060
  0.055
  0.060
  0.060
  0.055
  0.035
  0.025
  0.015
  0.025
  0.050
  0.070
  0.090
  0.115
  0.120
  0.120
  0.110
  0.085
  0.080
  0.090
  0.125
  0.155
  0.195
  0.225
  0.210
  0.180
  0.105
  0.015
 -0.050
 -0.080
 -0.105
 -0.115
 -0.115
 -0.095
 -0.050
 -0.025
 -0.035
 -0.055
 -0.070
 -0.100
 -0.090
 -0.070
 -0.065
 -0.065
 -0.095
 -0.120
 -0.095
 -0.075
 -0.075
 -0.085
 -0.125
 -0.135
 -0.145
 -0.160
 -0.190
 -0.210
 -0.200
 -0.205
 -0.180
 -0.155
 -0.125
 -0.140
 -0.155
 -0.150
 -0.150
 -0.140
 -0.130
 -0.135
 -0.125
 -0.120
 -0.100
 -0.065
 -0.020
 -0.005
  0.000
 -0.015
 -0.020
  0.035
  0.075
  0.075
  0.070
  0.045
  0.045
  0.040
  0.030
  0.025
  0.010
  0.000
  0.025
  0.070
  0.100
  0.115
  0.090
  0.035
  0.000
 -0.015
  0.045
  0.055
 -0.110
 -0.440
 -0.785
 -1.120
 -1.500
 -1.920
 -2.315
 -2.550
 -2.650
 -2.625
 -2.520
 -2.280
 -1.775
 -1.140
 -0.505
  0.070
  0.220
  0.285
  0.315
  0.305
  0.260
  0.245
  0.260
  0.280
  0.305
  0.320
  0.320
  0.340
  0.320
  0.300
  0.275
  0.265
  0.300
  0.315
  0.335
  0.330
  0.335
  0.325
  0.320
  0.325
  0.320
  0.305
  0.295
  0.280
  0.300
  0.325
  0.320
  0.330
  0.345
  0.345
  0.320
  0.330
  0.350
  0.345
  0.350
  0.340
  0.335
  0.340
  0.345
  0.370
  0.365
  0.370
  0.355
  0.340
  0.335
  0.335
  0.335
  0.320
  0.320
  0.345
  0.340
  0.335
  0.315
  0.310
  0.320
  0.320
  0.310
  0.270
  0.240
  0.225
  0.270
  0.280
  0.255
  0.240
  0.225
  0.195
  0.155
  0.125
  0.130
  0.145
  0.145
  0.140
  0.125
  0.100
  0.070
  0.040
 -0.005
 -0.030
  0.000
  0.035
  0.045
  0.025
  0.000
 -0.030
 -0.040
 -0.040
 -0.035
 -0.055
 -0.055
 -0.055
 -0.035
 -0.050
 -0.035
 -0.035
 -0.040
 -0.035
 -0.005
  0.035
  0.065
  0.065
  0.030
  0.010
  0.015
  0.050
  0.065
  0.070
  0.080
  0.070
  0.050
  0.050
  0.075
  0.105
  0.115
  0.100
  0.095
  0.100
  0.100
  0.105
  0.100
  0.105
  0.105
  0.125
  0.140
  0.135
  0.120
  0.120
  0.120
  0.135
  0.145
  0.155
  0.160
  0.150
  0.170
  0.180
  0.170
  0.140
  0.150
  0.165
  0.185
  0.205
  0.245
  0.255
  0.235
  0.205
  0.220
  0.225
  0.250
  0.270
  0.275
  0.235
  0.215
  0.220
  0.250
  0.240
  0.210
  0.180
  0.165
  0.165
  0.140
  0.140
  0.150
  0.170
  0.205
  0.235
  0.245
  0.235
  0.180
  0.165
  0.180
  0.200
  0.195
  0.165
  0.145
  0.185
  0.235
  0.255
  0.280
  0.250
  0.215
  0.180
  0.180
  0.170
  0.165
  0.190
  0.245
  0.280
  0.315
  0.280
  0.180
  0.070
  0.005
  0.000
  0.030
  0.020
 -0.030
 -0.040
 -0.035
 -0.010
  0.005
  0.020
  0.025
  0.055
  0.055
  0.035
  0.030
  0.025
  0.015
  0.005
 -0.005
 -0.025
 -0.015
 -0.035
 -0.045
 -0.065
 -0.080
 -0.085
 -0.075
 -0.100
 -0.130
 -0.155
 -0.185
 -0.185
 -0.160
 -0.145
 -0.140
 -0.125
 -0.130
 -0.125
 -0.075
 -0.025
  0.000
  0.015
  0.040
  0.055
  0.060
  0.055
  0.055
  0.060
  0.055
  0.025
  0.010
  0.030
  0.055
  0.070
  0.065
  0.090
  0.120
  0.115
  0.100
  0.075
  0.065
  0.030
  0.010
  0.000
  0.020
  0.050
  0.080
  0.110
  0.140
  0.140
  0.150
  0.185
  0.185
  0.070
 -0.140
 -0.370
 -0.615
 -0.965
 -1.415
 -1.865
 -2.255
 -2.515
 -2.630
 -2.625
 -2.505
 -2.180
 -1.590
 -0.955
 -0.320
  0.205
  0.350
  0.380
  0.390
  0.360
  0.330
  0.305
  0.295
  0.315
  0.350
  0.380
  0.390
  0.370
  0.330
  0.305
  0.310
  0.295
  0.275
  0.305
  0.350
  0.405
  0.435
  0.450
  0.450
  0.445
  0.440
  0.440
  0.435
  0.420
  0.410
  0.410
  0.400
  0.410
  0.410
  0.420
  0.420
  0.415
  0.410
  0.390
  0.395
  0.390
  0.395
  0.390
  0.380
  0.370
  0.380
  0.380
  0.370
  0.355
  0.345
  0.360
  0.395
  0.390
  0.380
  0.385
  0.360
  0.365
  0.350
  0.340
  0.375
  0.380
  0.360
  0.355
  0.370
  0.365
  0.370
  0.335
  0.290
  0.265
  0.255
  0.255
  0.240
  0.255
  0.265
  0.260
  0.245
  0.220
  0.225
  0.210
  0.185
  0.170
  0.175
  0.170
  0.160
  0.145
  0.085
  0.060
  0.070
  0.065
  0.030
  0.015
  0.020
  0.030
  0.050
  0.065
  0.050
  0.035
  0.005
 -0.025
 -0.025
 -0.015
  0.005
  0.005
 -0.020
 -0.020
 -0.050
 -0.060
 -0.055
 -0.070
 -0.055
 -0.050
 -0.030
  0.010
  0.040
  0.035
  0.020
  0.025
  0.040
  0.065
  0.055
  0.035
 -0.010
 -0.025
  0.000
  0.035
  0.075
  0.105
  0.115
  0.110
  0.120
  0.120
  0.125
  0.120
  0.125
  0.120
  0.125
  0.135
  0.155
  0.145
  0.115
  0.100
  0.125
  0.155
  0.175
  0.160
  0.160
  0.170
  0.220
  0.240
  0.240
  0.215
  0.210
  0.225
  0.240
  0.270
  0.280
  0.290
  0.280
  0.290
  0.305
  0.305
  0.270
  0.240
  0.200
  0.200
  0.220
  0.260
  0.285
  0.275
  0.260
  0.255
  0.275
  0.280
  0.290
  0.280
  0.265
  0.245
  0.260
  0.265
  0.275
  0.275
  0.270
  0.260
  0.255
  0.240
  0.225
  0.220
  0.215
  0.215
  0.240
  0.250
  0.255
  0.250
  0.250
  0.235
  0.215
  0.215
  0.205
  0.200
  0.205
  0.185
  0.195
  0.220
  0.220
  0.230
  0.215
  0.185
  0.185
  0.195
  0.210
  0.200
  0.205
  0.215
  0.225
  0.245
  0.275
  0.260
  0.245
  0.245
  0.235
  0.245
  0.230
  0.250
  0.270
  0.280
  0.310
  0.320
  0.265
  0.220
  0.170
  0.140
  0.105
  0.075
  0.070
  0.075
  0.060
  0.025
  0.030
  0.035
  0.035
  0.050
  0.030
  0.030
  0.040
  0.050
  0.035
  0.035
  0.025
  0.025
  0.030
  0.020
  0.010
  0.005
 -0.015
 -0.045
 -0.035
 -0.005
  0.015
  0.000
 -0.005
 -0.010
 -0.030
 -0.015
 -0.030
 -0.030
 -0.040
 -0.050
 -0.050
 -0.070
 -0.055
 -0.040
 -0.060
 -0.070
 -0.075
 -0.050
 -0.030
 -0.035
 -0.050
 -0.055
 -0.030
 -0.005
  0.030
  0.010
  0.000
  0.005
  0.020
  0.050
  0.075
  0.105
  0.130
  0.145
  0.170
  0.185
  0.170
  0.170
  0.170
  0.165
  0.170
  0.160
  0.170
  0.165
  0.140
  0.135
  0.135
  0.160
  0.170
  0.165
  0.145
  0.130
  0.125
  0.145
  0.160
  0.130
  0.130
  0.120
  0.140
  0.140
  0.170
  0.135
 -0.025
 -0.260
 -0.480
 -0.725
 -1.010
 -1.360
 -1.740
 -2.095
 -2.370
 -2.550
 -2.625
 -2.640
 -2.590
 -2.465
 -2.160
 -1.700
 -1.110
 -0.560
 -0.170
  0.045
  0.180
  0.275
  0.340
  0.355
  0.325
  0.305
  0.335
  0.365
  0.370
  0.370
  0.365
  0.340
  0.350
  0.355
  0.365
  0.360
  0.355
  0.335
  0.330
  0.325
  0.335
  0.345
  0.340
  0.335
  0.345
  0.345
  0.335
  0.330
  0.305
  0.295
  0.290
  0.310
  0.335
  0.340
  0.340
  0.315
  0.325
  0.345
  0.345
  0.335
  0.335
  0.340
  0.350
  0.350
  0.345
  0.350
  0.335
  0.350
  0.365
  0.355
  0.355
  0.345
  0.320
  0.300
  0.295
  0.315
  0.340
  0.350
  0.325
  0.295
  0.270
  0.265
  0.280
  0.300
  0.305
  0.315
  0.335
  0.335
  0.325
  0.300
  0.305
  0.315
  0.320
  0.335
  0.325
  0.330
  0.305
  0.265
  0.265
  0.290
  0.305
  0.275
  0.230
  0.190
  0.175
  0.175
  0.190
  0.190
  0.165
  0.150
  0.155
  0.160
  0.150
  0.145
  0.110
  0.080
  0.070
  0.075
  0.080
  0.070
  0.055
  0.035
  0.030
  0.035
  0.030
  0.025
  0.010
 -0.015
 -0.010
  0.010
  0.000
 -0.005
 -0.020
 -0.035
 -0.060
 -0.035
 -0.035
 -0.020
 -0.010
  0.000
  0.030
  0.035
  0.035
  0.025
  0.020
  0.015
  0.025
  0.055
  0.080
  0.075
  0.055
  0.040
  0.050
  0.055
  0.060
  0.070
  0.045
  0.050
  0.065
  0.085
  0.100
  0.105
  0.105
  0.120
  0.135
  0.150
  0.145
  0.120
  0.080
  0.060
  0.060
  0.080
  0.115
  0.125
  0.110
  0.105
  0.120
  0.140
  0.125
  0.065
  0.005
 -0.030
 -0.020
  0.010
  0.030
  0.060
  0.085
  0.125
  0.160
  0.205
  0.240
  0.250
  0.240
  0.240
  0.270
  0.295
  0.290
  0.285
  0.265
  0.250
  0.265
  0.270
  0.285
  0.280
  0.265
  0.250
  0.245
  0.255
  0.270
  0.275
  0.260
  0.230
  0.230
  0.200
  0.185
  0.160
  0.160
  0.180
  0.205
  0.210
  0.200
  0.160
  0.130
  0.130
  0.135
  0.145
  0.135
  0.155
  0.155
  0.150
  0.150
  0.155
  0.165
  0.165
  0.150
  0.130
  0.135
  0.130
  0.140
  0.140
  0.155
  0.180
  0.205
  0.240
  0.220
  0.210
  0.185
  0.125
  0.110
  0.135
  0.175
  0.210
  0.215
  0.230
  0.220
  0.225
  0.205
  0.160
  0.055
 -0.025
 -0.070
 -0.060
 -0.030
  0.000
 -0.005
 -0.010
 -0.005
  0.000
 -0.025
 -0.070
 -0.065
 -0.065
 -0.065
 -0.050
 -0.065
 -0.055
 -0.065
 -0.065
 -0.095
 -0.100
 -0.070
 -0.045
 -0.060
 -0.070
 -0.090
 -0.100
 -0.105
 -0.100
 -0.125
 -0.135
 -0.135
 -0.115
 -0.125
 -0.145
 -0.150
 -0.150
 -0.145
 -0.125
 -0.115
 -0.115
 -0.125
 -0.130
 -0.120
 -0.110
 -0.085
 -0.040
 -0.025
 -0.050
 -0.025
  0.000
  0.015
  0.010
  0.000
 -0.005
  0.005
  0.045
  0.080
  0.095
  0.080
  0.060
  0.090
  0.090
  0.105
  0.095
  0.095
  0.070
  0.065
  0.060
  0.080
  0.085
  0.075
  0.090
  0.135
  0.165
  0.150
  0.115
  0.075
  0.050
  0.020
  0.050
  0.085
 -0.005
 -0.240
 -0.505
 -0.740
 -1.020
 -1.385
 -1.805
 -2.190
 -2.490
 -2.655
 -2.715
 -2.700
 -2.630
 -2.445
 -2.100
 -1.520
 -0.885
 -0.300
  0.065
  0.270
  0.395
  0.455
  0.445
  0.405
  0.370
  0.340
  0.340
  0.380
  0.400
  0.390
  0.365
  0.325
  0.320
  0.340
  0.350
  0.355
  0.350
  0.350
  0.365
  0.375
  0.410
  0.410
  0.410
  0.380
  0.360
  0.360
  0.385
  0.410
  0.420
  0.400
  0.405
  0.400
  0.415
  0.435
  0.435
  0.415
  0.410
  0.430
  0.445
  0.440
  0.415
  0.370
  0.355
  0.360
  0.375
  0.385
  0.395
  0.390
  0.375
  0.380
  0.385
  0.380
  0.370
  0.355
  0.340
  0.345
  0.350
  0.340
  0.355
  0.345
  0.345
  0.340
  0.350
  0.345
  0.325
  0.310
  0.295
  0.280
  0.280
  0.275
  0.280
  0.245
  0.210
  0.215
  0.220
  0.225
  0.210
  0.160
  0.130
  0.115
  0.105
  0.085
  0.090
  0.080
  0.090
  0.085
  0.080
  0.040
 -0.005
 -0.030
 -0.030
 -0.005
  0.010
  0.025
  0.000
 -0.030
 -0.030
 -0.055
 -0.060
 -0.060
 -0.055
 -0.075
 -0.100
 -0.065
 -0.005
  0.025
  0.025
  0.010
  0.020
  0.035
  0.025
  0.025
  0.040
  0.055
  0.045
  0.035
  0.030
  0.030
  0.045
  0.045
  0.030
  0.030
  0.055
  0.045
  0.040
  0.050
  0.075
  0.110
  0.140
  0.120
  0.110
  0.100
  0.080
  0.100
  0.105
  0.120
  0.115
  0.115
  0.125
  0.135
  0.140
  0.155
  0.175
  0.155
  0.125
  0.135
  0.140
  0.150
  0.160
  0.145
  0.145
  0.170
  0.230
  0.250
  0.250
  0.230
  0.240
  0.240
  0.240
  0.225
  0.205
  0.210
  0.200
  0.195
  0.185
  0.175
  0.170
  0.165
  0.160
  0.155
  0.180
  0.190
  0.200
  0.185
  0.185
  0.200
  0.170
  0.150
  0.115
  0.115
  0.130
  0.105
  0.115
  0.130
  0.120
  0.110
  0.090
  0.120
  0.130
  0.160
  0.165
  0.160
  0.150
  0.150
  0.160
  0.140
  0.135
  0.135
  0.140
  0.120
  0.150
  0.195
  0.235
  0.255
  0.265
  0.275
  0.275
  0.245
  0.190
  0.130
  0.070
  0.045
  0.030
  0.010
 -0.010
 -0.055
 -0.065
 -0.050
 -0.025
 -0.005
  0.000
 -0.005
 -0.005
  0.000
  0.015
 -0.005
 -0.020
 -0.050
 -0.065
 -0.050
 -0.025
 -0.015
 -0.010
 -0.055
 -0.085
 -0.105
 -0.090
 -0.090
 -0.090
 -0.090
 -0.100
 -0.100
 -0.115
 -0.130
 -0.145
 -0.125
 -0.115
 -0.095
 -0.090
 -0.095
 -0.100
 -0.110
 -0.105
 -0.085
 -0.080
 -0.075
 -0.065
 -0.050
 -0.040
  0.015
  0.050
  0.070
  0.055
  0.045
  0.000
  0.020
  0.045
  0.080
  0.100
  0.110
  0.115
  0.140
  0.155
  0.120
  0.080
  0.070
  0.065
  0.090
  0.110
  0.150
  0.210
  0.240
  0.210
  0.145
  0.115
  0.095
 -0.015
 -0.270
 -0.565
 -0.885
 -1.235
 -1.630
 -2.010
 -2.325
 -2.560
 -2.685
 -2.730
 -2.695
 -2.585
 -2.350
 -1.925
 -1.290
 -0.655
 -0.045
  0.230
  0.345
  0.385
  0.425
  0.420
  0.410
  0.410
  0.400
  0.390
  0.395
  0.395
  0.385
  0.395
  0.405
  0.395
  0.395
  0.405
  0.420
  0.415
  0.400
  0.380
  0.355
  0.350
  0.355
  0.360
  0.355
  0.350
  0.350
  0.375
  0.405
  0.410
  0.380
  0.360
  0.380
  0.405
  0.420
  0.405
  0.390
  0.405
  0.415
  0.400
  0.385
  0.380
  0.390
  0.375
  0.380
  0.385
  0.395
  0.380
  0.380
  0.355
  0.380
  0.390
  0.390
  0.395
  0.395
  0.375
  0.365
  0.380
  0.375
  0.365
  0.350
  0.315
  0.320
  0.310
  0.320
  0.320
  0.305
  0.275
  0.260
  0.270
  0.260
  0.255
  0.245
  0.215
  0.200
  0.190
  0.180
  0.165
  0.120
  0.100
  0.115
  0.110
  0.115
  0.100
  0.100
  0.100
  0.075
  0.055
  0.045
  0.035
  0.020
  0.000
 -0.020
 -0.025
 -0.005
 -0.005
 -0.005
  0.015
  0.040
  0.035
  0.015
  0.005
 -0.015
 -0.015
 -0.010
  0.005
  0.040
  0.060
  0.055
  0.050
  0.090
  0.105
  0.100
  0.090
  0.050
  0.045
  0.105
  0.140
  0.160
  0.155
  0.120
  0.120
  0.125
  0.140
  0.135
  0.145
  0.135
  0.130
  0.150
  0.170
  0.175
  0.195
  0.195
  0.210
  0.220
  0.230
  0.245
  0.260
  0.250
  0.235
  0.240
  0.265
  0.265
  0.270
  0.275
  0.270
  0.265
  0.280
  0.290
  0.305
  0.295
  0.290
  0.300
  0.310
  0.315
  0.295
  0.270
  0.255
  0.235
  0.255
  0.285
  0.300
  0.280
  0.260
  0.255
  0.260
  0.250
  0.250
  0.235
  0.235
  0.235
  0.245
  0.240
  0.230
  0.215
  0.210
  0.230
  0.270
  0.300
  0.295
  0.255
  0.200
  0.155
  0.055
 -0.055
 -0.140
 -0.195
 -0.235
 -0.275
 -0.345
 -0.400
 -0.445
 -0.545
 -0.705
 -0.955
 -1.150
 -1.210
 -1.045
 -0.705
 -0.315
 -0.035
  0.185
  0.390
  0.555
  0.690
  0.840
  0.975
  1.080
  1.155
  1.190
  1.115
  1.005
  0.960
  0.935
  0.900
  0.780
  0.580
  0.405
  0.285
  0.250
  0.195
  0.125
  0.095
  0.060
  0.030
 -0.010
 -0.045
 -0.045
 -0.050
 -0.075
 -0.070
 -0.020
 -0.005
  0.015
  0.025
  0.000
 -0.010
  0.020
  0.020
  0.035
  0.060
  0.080
  0.090
  0.085
  0.090
  0.095
  0.065
  0.025
  0.025
  0.040
  0.055
  0.045
  0.005
  0.015
  0.020
 -0.005
 -0.005
 -0.010
 -0.040
 -0.070
 -0.105
 -0.105
 -0.100
 -0.105
 -0.135
 -0.165
 -0.180
 -0.195
 -0.235
 -0.245
 -0.225
 -0.225
 -0.250
 -0.265
 -0.270
 -0.290
 -0.315
 -0.335
 -0.320
 -0.320
 -0.315
 -0.340
 -0.360
 -0.380
 -0.390
 -0.390
 -0.390
 -0.375
 -0.355
 -0.340
 -0.320
 -0.295
 -0.305
 -0.345
 -0.350
 -0.360
 -0.325
 -0.295
 -0.280
 -0.260
 -0.245
 -0.225
 -0.225
 -0.210
 -0.185
 -0.145
 -0.120
 -0.105
 -0.070
 -0.030
  0.025
  0.035
  0.030
  0.025
  0.055
  0.085
  0.120
  0.120
  0.105
  0.115
  0.125
  0.145
  0.160
  0.185
  0.180
  0.195
  0.195
  0.210
  0.215
  0.225
  0.210
  0.215
  0.210
  0.210
  0.225
  0.225
  0.205
  0.205
  0.225
  0.230
  0.205
  0.185
  0.185
  0.190
  0.195
  0.195
  0.205
  0.205
  0.185
  0.185
  0.190
  0.190
  0.190
  0.195
  0.185
  0.175
  0.180
  0.195
  0.215
  0.210
  0.205
  0.180
  0.180
  0.185
  0.175
  0.160
  0.155
  0.170
  0.190
  0.205
  0.230
  0.225
  0.205
  0.190
  0.175
  0.175
  0.195
  0.170
  0.145
  0.155
  0.145
  0.140
  0.155
  0.175
  0.175
  0.175
  0.170
  0.190
  0.205
  0.175
  0.150
  0.150
  0.165
  0.205
  0.195
  0.165
  0.150
  0.145
  0.150
  0.155
  0.165
  0.170
  0.165
  0.135
  0.125
  0.150
  0.175
  0.180
  0.160
  0.135
  0.110
  0.120
  0.170
  0.185
  0.155
  0.105
  0.070
  0.080
  0.130
  0.155
  0.155
  0.135
  0.145
  0.140
  0.135
  0.130
  0.140
  0.145
  0.150
  0.180
  0.205
  0.200
  0.165
  0.140
  0.130
  0.140
  0.140
  0.155
  0.160
  0.150
  0.170
  0.185
  0.190
  0.170
  0.140
  0.130
  0.155
  0.200
  0.220
  0.210
  0.190
  0.175
  0.175
  0.205
  0.230
  0.245
  0.265
  0.290
  0.310
  0.315
  0.325
  0.330
  0.295
  0.240
  0.165
  0.095
  0.030
  0.000
 -0.025
 -0.025
 -0.015
  0.015
  0.060
  0.065
  0.055
  0.035
  0.015
 -0.005
 -0.005
 -0.010
 -0.015
  0.005
  0.000
  0.010
  0.035
  0.030
 -0.010
 -0.035
 -0.075
 -0.070
 -0.050
 -0.040
 -0.020
 -0.015
 -0.005
  0.010
 -0.005
 -0.045
 -0.065
 -0.060
 -0.035
 -0.020
  0.015
  0.035
  0.050
  0.040
  0.030
  0.045
  0.060
  0.085
  0.090
  0.100
  0.120
  0.150
  0.155
  0.130
  0.120
  0.135
  0.175
  0.200
  0.185
  0.150
  0.125
  0.120
  0.140
  0.170
  0.190
  0.185
  0.140
  0.120
  0.105
  0.110
 -0.020
 -0.315
 -0.705
 -1.090
 -1.535
 -2.025
 -2.440
 -2.700
 -2.800
 -2.760
 -2.625
 -2.220
 -1.585
 -0.950
 -0.315
  0.260
  0.315
  0.315
  0.290
  0.265
  0.255
  0.255
  0.270
  0.320
  0.345
  0.355
  0.355
  0.360
  0.365
  0.355
  0.350
  0.335
  0.340
  0.350
  0.380
  0.405
  0.430
  0.415
  0.405
  0.415
  0.440
  0.440
  0.455
  0.450
  0.425
  0.420
  0.395
  0.405
  0.400
  0.380
  0.380
  0.380
  0.370
  0.390
  0.410
  0.405
  0.370
  0.355
  0.345
  0.360
  0.390
  0.410
  0.405
  0.390
  0.370
  0.390
  0.420
  0.420
  0.415
  0.395
  0.360
  0.355
  0.380
  0.370
  0.330
  0.305
  0.310
  0.310
  0.285
  0.265
  0.260
  0.250
  0.235
  0.235
  0.215
  0.185
  0.165
  0.150
  0.155
  0.165
  0.140
  0.110
  0.095
  0.085
  0.095
  0.095
  0.095
  0.090
  0.075
  0.055
  0.055
  0.075
  0.095
  0.080
  0.065
  0.065
  0.050
  0.065
  0.075
  0.070
  0.055
  0.035
 -0.005
  0.000
  0.040
  0.035
  0.015
  0.000
  0.005
  0.045
  0.085
  0.105
  0.100
  0.075
  0.055
  0.085
  0.095
  0.065
  0.060
  0.085
  0.115
  0.105
  0.125
  0.135
  0.140
  0.140
  0.110
  0.110
  0.125
  0.130
  0.125
  0.135
  0.130
  0.145
  0.155
  0.165
  0.175
  0.180
  0.210
  0.230
  0.235
  0.240
  0.240
  0.235
  0.245
  0.230
  0.250
  0.270
  0.265
  0.270
  0.265
  0.260
  0.275
  0.275
  0.275
  0.285
  0.295
  0.305
  0.310
  0.245
  0.160
  0.060
 -0.010
 -0.040
 -0.085
 -0.155
 -0.215
 -0.255
 -0.325
 -0.420
 -0.440
 -0.440
 -0.480
 -0.540
 -0.675
 -0.820
 -0.900
 -0.870
 -0.690
 -0.390
 -0.080
  0.190
  0.405
  0.630
  0.810
  0.925
  1.045
  1.195
  1.315
  1.355
  1.365
  1.360
  1.320
  1.260
  1.180
  1.065
  0.955
  0.855
  0.690
  0.560
  0.470
  0.395
  0.330
  0.270
  0.230
  0.185
  0.130
  0.095
  0.070
  0.060
  0.020
  0.010
 -0.015
 -0.010
 -0.025
 -0.045
 -0.055
 -0.075
 -0.070
 -0.080
 -0.110
 -0.130
 -0.155
 -0.145
 -0.135
 -0.155
 -0.185
 -0.205
 -0.210
 -0.185
 -0.170
 -0.175
 -0.190
 -0.195
 -0.210
 -0.200
 -0.200
 -0.195
 -0.220
 -0.225
 -0.220
 -0.190
 -0.180
 -0.205
 -0.215
 -0.245
 -0.240
 -0.240
 -0.205
 -0.215
 -0.245
 -0.270
 -0.295
 -0.305
 -0.310
 -0.315
 -0.355
 -0.390
 -0.400
 -0.390
 -0.370
 -0.360
 -0.395
 -0.440
 -0.450
 -0.450
 -0.440
 -0.445
 -0.455
 -0.465
 -0.460
 -0.450
 -0.435
 -0.450
 -0.450
 -0.465
 -0.470
 -0.445
 -0.415
 -0.415
 -0.405
 -0.425
 -0.420
 -0.390
 -0.370
 -0.370
 -0.340
 -0.315
 -0.300
 -0.270
 -0.235
 -0.240
 -0.220
 -0.210
 -0.185
 -0.130
 -0.090
 -0.070
 -0.045
 -0.025
  0.000
  0.050
  0.080
  0.085
  0.065
  0.075
  0.090
  0.140
  0.145
  0.150
  0.165
  0.190
  0.205
  0.235
  0.250
  0.260
  0.245
  0.245
  0.230
  0.260
  0.270
  0.265
  0.255
  0.245
  0.230
  0.255
  0.290
  0.310
  0.285
  0.255
  0.225
  0.245
  0.260
  0.245
  0.235
  0.255
  0.255
  0.270
  0.280
  0.275
  0.270
  0.270
  0.255
  0.255
  0.220
  0.215
  0.205
  0.215
  0.225
  0.250
  0.270
  0.255
  0.230
  0.215
  0.195
  0.215
  0.240
  0.255
  0.240
  0.225
  0.215
  0.235
  0.235
  0.200
  0.185
  0.170
  0.185
  0.220
  0.240
  0.240
  0.235
  0.220
  0.200
  0.200
  0.205
  0.195
  0.190
  0.185
  0.170
  0.175
  0.170
  0.175
  0.185
  0.190
  0.185
  0.170
  0.155
  0.150
  0.160
  0.170
  0.180
  0.175
  0.170
  0.165
  0.135
  0.130
  0.100
  0.120
  0.140
  0.170
  0.160
  0.145
  0.150
  0.160
  0.155
  0.145
  0.125
  0.130
  0.145
  0.175
  0.155
  0.155
  0.150
  0.135
  0.130
  0.155
  0.145
  0.145
  0.150
  0.140
  0.130
  0.125
  0.125
  0.135
  0.125
  0.110
  0.100
  0.100
  0.105
  0.130
  0.125
  0.105
  0.120
  0.130
  0.145
  0.140
  0.125
  0.125
  0.140
  0.155
  0.135
  0.130
  0.125
  0.100
  0.105
  0.120
  0.120
  0.125
  0.100
  0.095
  0.105
  0.135
  0.155
  0.145
  0.150
  0.130
  0.115
  0.120
  0.135
  0.140
  0.150
  0.155
  0.180
  0.195
  0.205
  0.215
  0.195
  0.210
  0.215
  0.245
  0.255
  0.245
  0.225
  0.185
  0.145
  0.115
  0.080
  0.035
  0.005
 -0.020
 -0.015
  0.010
  0.055
  0.075
  0.055
  0.040
  0.025
  0.005
  0.010
  0.015
 -0.005
  0.010
  0.000
  0.010
  0.025
  0.025
  0.015
  0.000
 -0.010
 -0.020
 -0.030
 -0.050
 -0.060
 -0.050
 -0.075
 -0.090
 -0.080
 -0.070
 -0.065
 -0.055
 -0.050
 -0.035
 -0.030
 -0.020
 -0.035
 -0.040
 -0.020
  0.015
  0.050
  0.065
  0.080
  0.075
  0.070
  0.085
  0.115
  0.145
  0.135
  0.135
  0.135
  0.155
  0.150
  0.145
  0.145
  0.130
  0.105
  0.105
  0.105
  0.130
  0.130
  0.120
  0.120
  0.150
  0.155
  0.135
  0.090
  0.055
  0.025
  0.010
  0.030
  0.015
 -0.115
 -0.320
 -0.530
 -0.760
 -1.060
 -1.425
 -1.800
 -2.120
 -2.285
 -2.310
 -2.270
 -2.130
 -1.855
 -1.380
 -0.795
 -0.260
  0.060
  0.205
  0.260
  0.275
  0.250
  0.260
  0.275
  0.305
  0.300
  0.300
  0.315
  0.335
  0.355
  0.345
  0.335
  0.330
  0.330
  0.325
  0.330
  0.330
  0.335
  0.345
  0.335
  0.355
  0.365
  0.345
  0.330
  0.315
  0.300
  0.310
  0.295
  0.295
  0.280
  0.290
  0.295
  0.305
  0.315
  0.325
  0.335
  0.315
  0.310
  0.310
  0.315
  0.310
  0.295
  0.285
  0.285
  0.300
  0.320
  0.315
  0.315
  0.300
  0.275
  0.285
  0.295
  0.305
  0.305
  0.305
  0.285
  0.270
  0.270
  0.255
  0.240
  0.245
  0.250
  0.265
  0.265
  0.250
  0.220
  0.185
  0.185
  0.195
  0.205
  0.205
  0.205
  0.190
  0.170
  0.155
  0.160
  0.155
  0.145
  0.135
  0.100
  0.095
  0.090
  0.095
  0.075
  0.055
  0.045
  0.040
  0.040
  0.035
  0.035
  0.040
  0.040
  0.040
  0.050
  0.050
  0.030
  0.015
  0.005
  0.010
  0.030
  0.055
  0.050
  0.040
  0.015
  0.005
  0.010
  0.010
  0.000
  0.010
  0.020
  0.050
  0.055
  0.060
  0.045
  0.035
  0.010
  0.025
  0.050
  0.050
  0.050
  0.045
  0.030
  0.030
  0.055
  0.065
  0.060
  0.060
  0.060
  0.060
  0.070
  0.090
  0.100
  0.110
  0.110
  0.105
  0.120
  0.105
  0.100
  0.100
  0.095
  0.090
  0.110
  0.125
  0.140
  0.140
  0.145
  0.185
  0.200
  0.215
  0.205
  0.200
  0.195
  0.225
  0.245
  0.240
  0.225
  0.195
  0.185
  0.200
  0.225
  0.230
  0.235
  0.245
  0.245
  0.260
  0.280
  0.275
  0.260
  0.250
  0.255
  0.290
  0.290
  0.270
  0.265
  0.275
  0.265
  0.295
  0.285
  0.265
  0.240
  0.205
  0.170
  0.105
  0.035
 -0.020
 -0.095
 -0.155
 -0.195
 -0.230
 -0.250
 -0.295
 -0.340
 -0.375
 -0.395
 -0.425
 -0.500
 -0.600
 -0.735
 -0.810
 -0.770
 -0.600
 -0.345
 -0.085
  0.130
  0.340
  0.555
  0.760
  0.920
  1.055
  1.155
  1.230
  1.245
  1.215
  1.185
  1.195
  1.170
  1.100
  1.040
  1.000
  0.975
  0.925
  0.795
  0.635
  0.515
  0.440
  0.380
  0.310
  0.250
  0.200
  0.155
  0.110
  0.085
  0.070
  0.045
  0.020
 -0.010
 -0.025
 -0.030
 -0.035
 -0.035
 -0.040
 -0.055
 -0.055
 -0.050
 -0.065
 -0.095
 -0.110
 -0.125
 -0.105
 -0.090
 -0.100
 -0.105
 -0.130
 -0.115
 -0.115
 -0.110
 -0.110
 -0.125
 -0.135
 -0.110
 -0.060
 -0.050
 -0.055
 -0.085
 -0.105
 -0.110
 -0.085
 -0.080
 -0.085
 -0.095
 -0.130
 -0.145
 -0.150
 -0.155
 -0.160
 -0.180
 -0.185
 -0.205
 -0.225
 -0.220
 -0.220
 -0.225
 -0.255
 -0.265
 -0.275
 -0.270
 -0.285
 -0.290
 -0.315
 -0.335
 -0.330
 -0.320
 -0.315
 -0.345
 -0.360
 -0.375
 -0.385
 -0.400
 -0.400
 -0.410
 -0.400
 -0.390
 -0.375
 -0.370
 -0.380
 -0.400
 -0.410
 -0.410
 -0.370
 -0.350
 -0.350
 -0.360
 -0.360
 -0.360
 -0.330
 -0.300
 -0.280
 -0.295
 -0.305
 -0.290
 -0.265
 -0.245
 -0.230
 -0.225
 -0.225
 -0.200
 -0.175
 -0.140
 -0.115
 -0.100
 -0.070
 -0.065
 -0.035
 -0.020
 -0.005
  0.010
  0.030
  0.040
  0.060
  0.065
  0.075
  0.090
  0.090
  0.115
  0.125
  0.155
  0.160
  0.165
  0.165
  0.150
  0.155
  0.150
  0.180
  0.180
  0.180
  0.175
  0.180
  0.200
  0.215
  0.210
  0.195
  0.200
  0.210
  0.220
  0.200
  0.205
  0.200
  0.210
  0.220
  0.235
  0.235
  0.235
  0.220
  0.195
  0.205
  0.225
  0.225
  0.205
  0.180
  0.185
  0.200
  0.210
  0.220
  0.205
  0.205
  0.190
  0.215
  0.215
  0.220
  0.215
  0.190
  0.195
  0.185
  0.170
  0.165
  0.160
  0.160
  0.170
  0.185
  0.180
  0.190
  0.170
  0.175
  0.160
  0.170
  0.185
  0.175
  0.180
  0.165
  0.160
  0.165
  0.170
  0.180
  0.170
  0.165
  0.165
  0.170
  0.155
  0.145
  0.140
  0.140
  0.145
  0.155
  0.155
  0.165
  0.155
  0.145
  0.135
  0.155
  0.170
  0.155
  0.145
  0.130
  0.140
  0.140
  0.150
  0.145
  0.140
  0.120
  0.120
  0.130
  0.145
  0.160
  0.150
  0.140
  0.135
  0.155
  0.180
  0.185
  0.175
  0.155
  0.130
  0.125
  0.120
  0.125
  0.140
  0.140
  0.140
  0.155
  0.155
  0.160
  0.155
  0.140
  0.125
  0.120
  0.130
  0.125
  0.120
  0.120
  0.115
  0.130
  0.125
  0.145
  0.150
  0.135
  0.125
  0.115
  0.125
  0.155
  0.170
  0.150
  0.135
  0.125
  0.125
  0.140
  0.125
  0.110
  0.100
  0.120
  0.145
  0.165
  0.140
  0.140
  0.135
  0.120
  0.125
  0.115
  0.100
  0.095
  0.100
  0.125
  0.135
  0.130
  0.115
  0.125
  0.135
  0.125
  0.125
  0.125
  0.140
  0.140
  0.140
  0.155
  0.175
  0.175
  0.180
  0.175
  0.170
  0.170
  0.180
  0.200
  0.200
  0.185
  0.180
  0.200
  0.225
  0.210
  0.205
  0.180
  0.145
  0.095
  0.055
  0.035
  0.020
 -0.005
 -0.010
  0.005
  0.010
  0.015
  0.010
  0.005
 -0.015
 -0.010
  0.000
  0.010
  0.015
  0.000
 -0.005
 -0.005
  0.000
  0.005
  0.005
 -0.005
 -0.025
 -0.030
 -0.030
 -0.035
 -0.050
 -0.070
 -0.085
 -0.085
 -0.075
 -0.065
 -0.075
 -0.095
 -0.100
 -0.095
 -0.085
 -0.075
 -0.055
 -0.055
 -0.055
 -0.050
 -0.055
 -0.050
 -0.040
 -0.025
 -0.030
 -0.010
  0.015
  0.035
  0.045
  0.045
  0.050
  0.065
  0.095
  0.110
  0.115
  0.115
  0.115
  0.120
  0.125
  0.120
  0.110
  0.075
  0.060
  0.080
  0.085
  0.100
  0.095
  0.095
  0.090
  0.100
  0.090
  0.055
  0.020
  0.000
 -0.035
 -0.160
 -0.365
 -0.585
 -0.820
 -1.090
 -1.435
 -1.790
 -2.095
 -2.285
 -2.415
 -2.450
 -2.420
 -2.320
 -2.110
 -1.725
 -1.150
 -0.530
 -0.085
  0.135
  0.225
  0.265
  0.275
  0.275
  0.270
  0.275
  0.290
  0.300
  0.315
  0.320
  0.320
  0.335
  0.350
  0.325
  0.335
  0.315
  0.320
  0.340
  0.335
  0.355
  0.350
  0.350
  0.345
  0.355
  0.360
  0.340
  0.335
  0.320
  0.310
  0.330
  0.355
  0.355
  0.345
  0.335
  0.325
  0.335
  0.345
  0.335
  0.335
  0.330
  0.320
  0.310
  0.325
  0.325
  0.325
  0.315
  0.315
  0.330
  0.325
  0.315
  0.300
  0.280
  0.275
  0.290
  0.285
  0.300
  0.290
  0.270
  0.275
  0.285
  0.275
  0.260
  0.255
  0.235
  0.240
  0.260
  0.265
  0.225
  0.195
  0.170
  0.160
  0.155
  0.145
  0.160
  0.165
  0.145
  0.130
  0.115
  0.105
  0.085
  0.080
  0.065
  0.055
  0.065
  0.080
  0.080
  0.080
  0.050
  0.050
  0.055
  0.055
  0.050
  0.050
  0.040
  0.065
  0.085
  0.090
  0.080
  0.085
  0.090
  0.070
  0.080
  0.075
  0.080
  0.080
  0.080
  0.065
  0.090
  0.115
  0.120
  0.115
  0.120
  0.110
  0.120
  0.125
  0.115
  0.120
  0.115
  0.130
  0.125
  0.130
  0.130
  0.150
  0.155
  0.155
  0.155
  0.170
  0.160
  0.170
  0.180
  0.195
  0.195
  0.200
  0.210
  0.200
  0.195
  0.210
  0.230
  0.255
  0.255
  0.260
  0.250
  0.280
  0.295
  0.300
  0.300
  0.290
  0.270
  0.270
  0.280
  0.300
  0.310
  0.320
  0.310
  0.300
  0.300
  0.305
  0.325
  0.335
  0.330
  0.310
  0.320
  0.335
  0.375
  0.375
  0.350
  0.300
  0.255
  0.210
  0.155
  0.070
 -0.005
 -0.060
 -0.115
 -0.155
 -0.200
 -0.270
 -0.335
 -0.365
 -0.385
 -0.415
 -0.480
 -0.600
 -0.745
 -0.850
 -0.835
 -0.655
 -0.365
 -0.030
  0.275
  0.540
  0.800
  1.025
  1.200
  1.320
  1.375
  1.380
  1.365
  1.360
  1.305
  1.220
  1.130
  1.090
  1.055
  0.990
  0.860
  0.695
  0.555
  0.490
  0.440
  0.385
  0.345
  0.305
  0.240
  0.180
  0.145
  0.135
  0.130
  0.120
  0.090
  0.065
  0.045
  0.040
  0.025
  0.025
 -0.005
 -0.020
 -0.015
  0.000
 -0.005
 -0.020
 -0.025
 -0.040
 -0.055
 -0.060
 -0.060
 -0.060
 -0.050
 -0.040
 -0.020
 -0.010
  0.005
 -0.010
 -0.025
 -0.015
  0.005
  0.000
  0.000
 -0.010
 -0.010
 -0.010
 -0.010
 -0.025
 -0.040
 -0.030
 -0.050
 -0.065
 -0.085
 -0.090
 -0.110
 -0.130
 -0.160
 -0.185
 -0.190
 -0.195
 -0.200
 -0.220
 -0.250
 -0.265
 -0.260
 -0.255
 -0.255
 -0.270
 -0.300
 -0.305
 -0.305
 -0.300
 -0.290
 -0.300
 -0.310
 -0.320
 -0.320
 -0.310
 -0.305
 -0.310
 -0.300
 -0.310
 -0.300
 -0.300
 -0.290
 -0.280
 -0.255
 -0.235
 -0.210
 -0.200
 -0.190
 -0.175
 -0.180
 -0.180
 -0.180
 -0.155
 -0.130
 -0.095
 -0.085
 -0.075
 -0.040
 -0.005
  0.000
  0.010
  0.025
  0.055
  0.085
  0.140
  0.185
  0.180
  0.170
  0.175
  0.185
  0.215
  0.235
  0.225
  0.225
  0.225
  0.255
  0.290
  0.295
  0.290
  0.280
  0.285
  0.305
  0.320
  0.320
  0.310
  0.285
  0.280
  0.295
  0.315
  0.310
  0.310
  0.285
  0.280
  0.280
  0.275
  0.285
  0.280
  0.285
  0.275
  0.270
  0.270
  0.270
  0.255
  0.255
  0.250
  0.280
  0.290
  0.305
  0.290
  0.285
  0.260
  0.260
  0.250
  0.250
  0.260
  0.255
  0.250
  0.255
  0.255
  0.250
  0.245
  0.245
  0.240
  0.255
  0.250
  0.245
  0.240
  0.225
  0.230
  0.235
  0.250
  0.245
  0.230
  0.215
  0.200
  0.210
  0.210
  0.215
  0.215
  0.215
  0.215
  0.210
  0.205
  0.215
  0.215
  0.190
  0.175
  0.200
  0.230
  0.235
  0.225
  0.200
  0.185
  0.170
  0.195
  0.210
  0.220
  0.205
  0.195
  0.185
  0.175
  0.160
  0.155
  0.170
  0.180
  0.185
  0.195
  0.200
  0.195
  0.185
  0.180
  0.180
  0.190
  0.195
  0.200
  0.190
  0.160
  0.135
  0.130
  0.140
  0.165
  0.165
  0.160
  0.180
  0.175
  0.175
  0.145
  0.145
  0.135
  0.125
  0.125
  0.145
  0.175
  0.180
  0.165
  0.145
  0.130
  0.130
  0.115
  0.120
  0.135
  0.135
  0.165
  0.165
  0.155
  0.125
  0.115
  0.125
  0.150
  0.170
  0.170
  0.160
  0.140
  0.135
  0.145
  0.145
  0.150
  0.145
  0.150
  0.170
  0.180
  0.195
  0.205
  0.205
  0.185
  0.190
  0.205
  0.225
  0.235
  0.240
  0.220
  0.230
  0.245
  0.230
  0.200
  0.125
  0.065
  0.030
  0.020
  0.025
  0.010
  0.005
  0.010
  0.030
  0.065
  0.075
  0.060
  0.040
  0.020
  0.025
  0.030
  0.030
  0.030
  0.015
  0.005
  0.000
 -0.005
 -0.015
 -0.030
 -0.060
 -0.055
 -0.055
 -0.050
 -0.035
 -0.030
 -0.045
 -0.070
 -0.060
 -0.040
 -0.030
 -0.020
 -0.035
 -0.035
 -0.015
  0.005
  0.005
 -0.005
 -0.010
  0.020
  0.050
  0.060
  0.085
  0.115
  0.135
  0.115
  0.110
  0.105
  0.125
  0.125
  0.120
  0.115
  0.135
  0.125
  0.125
  0.120
  0.115
  0.110
  0.120
  0.160
  0.170
  0.145
  0.105
  0.035
  0.000
 -0.030
 -0.110
 -0.325
 -0.580
 -0.870
 -1.175
 -1.535
 -1.865
 -2.140
 -2.305
 -2.310
 -2.155
 -1.770
 -1.140
 -0.505
  0.000
  0.195
  0.255
  0.290
  0.315
  0.325
  0.330
  0.330
  0.335
  0.350
  0.370
  0.365
  0.355
  0.355
  0.355
  0.385
  0.390
  0.375
  0.355
  0.340
  0.345
  0.370
  0.380
  0.375
  0.355
  0.355
  0.365
  0.375
  0.380
  0.370
  0.365
  0.370
  0.365
  0.360
  0.355
  0.350
  0.340
  0.325
  0.325
  0.340
  0.360
  0.355
  0.355
  0.365
  0.345
  0.335
  0.325
  0.345
  0.355
  0.355
  0.360
  0.350
  0.335
  0.335
  0.320
  0.300
  0.305
  0.320
  0.315
  0.305
  0.285
  0.265
  0.250
  0.235
  0.230
  0.220
  0.210
  0.190
  0.180
  0.175
  0.175
  0.170
  0.165
  0.155
  0.145
  0.115
  0.105
  0.110
  0.095
  0.090
  0.095
  0.105
  0.100
  0.095
  0.080
  0.060
  0.045
  0.050
  0.045
  0.045
  0.060
  0.065
  0.060
  0.070
  0.065
  0.060
  0.055
  0.050
  0.060
  0.075
  0.080
  0.085
  0.075
  0.065
  0.080
  0.085
  0.090
  0.095
  0.090
  0.090
  0.115
  0.120
  0.120
  0.115
  0.110
  0.090
  0.120
  0.140
  0.150
  0.145
  0.135
  0.125
  0.130
  0.160
  0.180
  0.185
  0.170
  0.170
  0.175
  0.195
  0.210
  0.215
  0.205
  0.200
  0.215
  0.245
  0.270
  0.265
  0.260
  0.250
  0.240
  0.240
  0.275
  0.280
  0.280
  0.255
  0.270
  0.280
  0.285
  0.290
  0.290
  0.285
  0.290
  0.310
  0.330
  0.310
  0.270
  0.210
  0.125
  0.050
  0.000
 -0.055
 -0.125
 -0.190
 -0.265
 -0.325
 -0.370
 -0.390
 -0.405
 -0.420
 -0.470
 -0.575
 -0.725
 -0.845
 -0.885
 -0.795
 -0.565
 -0.250
  0.050
  0.345
  0.630
  0.855
  1.065
  1.235
  1.315
  1.315
  1.305
  1.275
  1.220
  1.125
  1.060
  1.015
  0.960
  0.845
  0.685
  0.555
  0.440
  0.365
  0.300
  0.230
  0.165
  0.125
  0.080
  0.050
  0.040
  0.025
  0.015
  0.015
  0.005
 -0.010
 -0.030
 -0.045
 -0.060
 -0.055
 -0.070
 -0.080
 -0.095
 -0.110
 -0.095
 -0.100
 -0.090
 -0.070
 -0.080
 -0.080
 -0.095
 -0.085
 -0.085
 -0.080
 -0.105
 -0.110
 -0.085
 -0.065
 -0.060
 -0.070
 -0.080
 -0.085
 -0.075
 -0.080
 -0.100
 -0.125
 -0.150
 -0.175
 -0.190
 -0.195
 -0.215
 -0.230
 -0.250
 -0.260
 -0.260
 -0.240
 -0.250
 -0.270
 -0.310
 -0.335
 -0.350
 -0.340
 -0.335
 -0.340
 -0.355
 -0.355
 -0.355
 -0.335
 -0.345
 -0.345
 -0.365
 -0.370
 -0.365
 -0.340
 -0.325
 -0.330
 -0.335
 -0.345
 -0.325
 -0.290
 -0.275
 -0.275
 -0.270
 -0.250
 -0.225
 -0.190
 -0.170
 -0.150
 -0.130
 -0.105
 -0.060
 -0.030
 -0.020
 -0.010
 -0.005
  0.005
  0.035
  0.065
  0.090
  0.100
  0.105
  0.115
  0.140
  0.165
  0.185
  0.200
  0.210
  0.205
  0.200
  0.195
  0.190
  0.195
  0.200
  0.210
  0.205
  0.205
  0.195
  0.190
  0.185
  0.190
  0.205
  0.220
  0.230
  0.220
  0.205
  0.180
  0.175
  0.180
  0.185
  0.175
  0.160
  0.155
  0.155
  0.170
  0.180
  0.170
  0.160
  0.180
  0.195
  0.240
  0.230
  0.200
  0.165
  0.125
  0.115
  0.130
  0.140
  0.160
  0.145
  0.125
  0.110
  0.120
  0.125
  0.105
  0.090
  0.060
  0.075
  0.100
  0.125
  0.115
  0.080
  0.065
  0.075
  0.085
  0.095
  0.115
  0.130
  0.130
  0.140
  0.145
  0.095
  0.055
  0.025
  0.020
  0.035
  0.040
  0.035
  0.025
  0.010
  0.020
  0.020
  0.025
  0.030
  0.020
  0.010
  0.015
  0.035
  0.060
  0.050
  0.035
  0.025
  0.020
  0.035
  0.040
  0.055
  0.070
  0.065
  0.050
  0.045
  0.075
  0.080
  0.050
  0.000
 -0.045
 -0.050
 -0.035
  0.000
  0.000
 -0.025
 -0.055
 -0.075
 -0.060
 -0.050
 -0.035
 -0.040
 -0.020
 -0.005
  0.030
  0.030
  0.000
 -0.020
 -0.035
 -0.015
 -0.005
  0.015
  0.015
 -0.005
 -0.015
 -0.030
 -0.010
  0.025
  0.050
  0.030
 -0.015
 -0.035
 -0.010
  0.015
  0.015
 -0.010
 -0.030
 -0.015
  0.015
  0.025
  0.050
  0.050
  0.055
  0.060
  0.055
  0.055
  0.070
  0.090
  0.075
  0.045
  0.035
  0.050
  0.065
  0.025
 -0.030
 -0.080
 -0.105
 -0.125
 -0.125
 -0.145
 -0.160
 -0.155
 -0.150
 -0.150
 -0.165
 -0.145
 -0.130
 -0.120
 -0.095
 -0.105
 -0.105
 -0.125
 -0.125
 -0.125
 -0.115
 -0.130
 -0.125
 -0.125
 -0.155
 -0.165
 -0.165
 -0.165
 -0.180
 -0.195
 -0.200
 -0.185
 -0.180
 -0.190
 -0.185
 -0.190
 -0.175
 -0.170
 -0.150
 -0.135
 -0.130
 -0.130
 -0.120
 -0.090
 -0.040
 -0.020
 -0.010
 -0.015
 -0.035
 -0.050
 -0.055
 -0.050
 -0.040
 -0.040
 -0.035
 -0.015
 -0.010
  0.015
 -0.005
 -0.030
 -0.045
 -0.050
 -0.050
 -0.040
 -0.015
 -0.010
 -0.035
 -0.065
 -0.080
 -0.090
 -0.180
 -0.405
 -0.645
 -0.890
 -1.135
 -1.420
 -1.750
 -2.080
 -2.510
 -2.695
 -2.670
 -2.525
 -2.240
 -1.715
 -1.080
 -0.445
 -0.040
  0.125
  0.180
  0.205
  0.195
  0.175
  0.195
  0.205
  0.220
  0.210
  0.200
  0.190
  0.210
  0.240
  0.270
  0.265
  0.250
  0.230
  0.230
  0.255
  0.255
  0.255
  0.245
  0.240
  0.255
  0.270
  0.280
  0.280
  0.265
  0.265
  0.270
  0.260
  0.225
  0.220
  0.240
  0.260
  0.280
  0.285
  0.265
  0.275
  0.270
  0.250
  0.250
  0.265
  0.265
  0.250
  0.245
  0.235
  0.285
  0.285
  0.250
  0.230
  0.235
  0.230
  0.250
  0.255
  0.240
  0.225
  0.190
  0.190
  0.210
  0.210
  0.190
  0.190
  0.175
  0.160
  0.155
  0.165
  0.145
  0.120
  0.100
  0.105
  0.100
  0.105
  0.080
  0.065
  0.040
  0.045
  0.060
  0.070
  0.035
  0.020
  0.005
  0.010
  0.010
  0.015
  0.010
 -0.015
 -0.040
 -0.065
 -0.035
 -0.035
 -0.045
 -0.070
 -0.065
 -0.075
 -0.060
 -0.055
 -0.055
 -0.055
 -0.055
 -0.055
 -0.045
 -0.030
 -0.040
 -0.055
 -0.060
 -0.070
 -0.050
 -0.040
 -0.040
 -0.040
 -0.050
 -0.050
 -0.040
 -0.025
 -0.020
 -0.015
 -0.025
 -0.030
 -0.020
  0.000
 -0.005
 -0.015
 -0.025
 -0.010
  0.025
  0.040
  0.040
  0.035
  0.045
  0.040
  0.070
  0.105
  0.095
  0.090
  0.085
  0.095
  0.105
  0.130
  0.125
  0.120
  0.095
  0.085
  0.120
  0.145
  0.165
  0.175
  0.185
  0.180
  0.205
  0.220
  0.210
  0.205
  0.205
  0.195
  0.220
  0.250
  0.220
  0.220
  0.210
  0.215
  0.250
  0.295
  0.290
  0.275
  0.225
  0.190
  0.150
  0.080
 -0.030
 -0.160
 -0.230
 -0.290
 -0.340
 -0.400
 -0.480
 -0.580
 -0.660
 -0.700
 -0.735
 -0.760
 -0.855
 -1.040
 -1.210
 -1.240
 -1.030
 -0.660
 -0.300
  0.000
  0.315
  0.640
  0.920
  1.165
  1.320
  1.375
  1.380
  1.375
  1.360
  1.275
  1.195
  1.125
  1.085
  1.030
  0.890
  0.675
  0.465
  0.355
  0.310
  0.265
  0.210
  0.165
  0.095
  0.030
 -0.020
 -0.045
 -0.035
 -0.025
 -0.020
 -0.040
 -0.060
 -0.075
 -0.090
 -0.105
 -0.135
 -0.170
 -0.190
 -0.185
 -0.160
 -0.150
 -0.155
 -0.185
 -0.200
 -0.205
 -0.190
 -0.165
 -0.170
 -0.170
 -0.160
 -0.165
 -0.145
 -0.140
 -0.155
 -0.155
 -0.160
 -0.145
 -0.120
 -0.105
 -0.115
 -0.145
 -0.170
 -0.200
 -0.195
 -0.195
 -0.210
 -0.245
 -0.290
 -0.325
 -0.335
 -0.330
 -0.345
 -0.375
 -0.385
 -0.410
 -0.415
 -0.425
 -0.445
 -0.460
 -0.465
 -0.480
 -0.470
 -0.480
 -0.480
 -0.495
 -0.505
 -0.535
 -0.530
 -0.520
 -0.535
 -0.545
 -0.530
 -0.510
 -0.470
 -0.455
 -0.460
 -0.485
 -0.490
 -0.490
 -0.445
 -0.400
 -0.390
 -0.365
 -0.365
 -0.365
 -0.340
 -0.295
 -0.285
 -0.280
 -0.250
 -0.220
 -0.180
 -0.140
 -0.110
 -0.105
 -0.085
 -0.055
 -0.015
  0.035
  0.055
  0.075
  0.080
  0.085
  0.095
  0.115
  0.135
  0.140
  0.145
  0.160
  0.175
  0.190
  0.190
  0.170
  0.180
  0.185
  0.210
  0.230
  0.220
  0.210
  0.225
  0.205
  0.190
  0.210
  0.205
  0.215
  0.200
  0.175
  0.195
  0.215
  0.215
  0.200
  0.175
  0.165
  0.185
  0.200
  0.205
  0.200
  0.200
  0.190
  0.185
  0.180
  0.180
  0.175
  0.180
  0.165
  0.180
  0.165
  0.150
  0.150
  0.155
  0.155
  0.185
  0.180
  0.175
  0.180
  0.160
  0.140
  0.155
  0.160
  0.150
  0.135
  0.125
  0.130
  0.150
  0.160
  0.150
  0.135
  0.115
  0.125
  0.130
  0.150
  0.155
  0.125
  0.095
  0.080
  0.075
  0.105
  0.120
  0.135
  0.140
  0.125
  0.145
  0.165
  0.155
  0.120
  0.105
  0.095
  0.125
  0.120
  0.120
  0.110
  0.080
  0.075
  0.065
  0.085
  0.100
  0.070
  0.040
  0.030
  0.065
  0.085
  0.080
  0.075
  0.075
  0.065
  0.070
  0.070
  0.080
  0.065
  0.055
  0.045
  0.060
  0.065
  0.090
  0.090
  0.065
  0.035
  0.050
  0.065
  0.065
  0.065
  0.060
  0.060
  0.080
  0.080
  0.075
  0.060
  0.045
  0.050
  0.075
  0.090
  0.065
  0.055
  0.045
  0.030
  0.050
  0.050
  0.055
  0.035
  0.015
  0.015
  0.020
  0.025
  0.025
  0.020
  0.020
  0.025
  0.060
  0.075
  0.065
  0.065
  0.050
  0.040
  0.050
  0.065
  0.065
  0.065
  0.075
  0.085
  0.105
  0.105
  0.110
  0.125
  0.125
  0.135
  0.170
  0.185
  0.185
  0.190
  0.145
  0.080
  0.020
 -0.030
 -0.065
 -0.090
 -0.105
 -0.120
 -0.120
 -0.105
 -0.100
 -0.125
 -0.135
 -0.145
 -0.130
 -0.120
 -0.105
 -0.120
 -0.115
 -0.115
 -0.105
 -0.100
 -0.110
 -0.120
 -0.135
 -0.150
 -0.145
 -0.150
 -0.150
 -0.175
 -0.195
 -0.215
 -0.210
 -0.225
 -0.225
 -0.235
 -0.230
 -0.215
 -0.200
 -0.200
 -0.195
 -0.210
 -0.220
 -0.215
 -0.180
 -0.155
 -0.150
 -0.160
 -0.150
 -0.145
 -0.115
 -0.085
 -0.075
 -0.055
 -0.040
 -0.015
  0.005
  0.010
  0.015
  0.010
 -0.005
 -0.015
 -0.010
  0.010
  0.020
  0.010
  0.000
  0.000
  0.010
  0.010
  0.010
  0.000
 -0.005
 -0.035
 -0.060
 -0.050
 -0.050
 -0.060
 -0.150
 -0.400
 -0.690
 -0.985
 -1.300
 -1.645
 -2.010
 -2.335
 -2.555
 -2.640
 -2.635
 -2.535
 -2.315
 -1.895
 -1.280
 -0.670
 -0.265
 -0.020
  0.095
  0.160
  0.210
  0.230
  0.235
  0.235
  0.255
  0.270
  0.300
  0.310
  0.290
  0.270
  0.260
  0.240
  0.265
  0.290
  0.310
  0.295
  0.295
  0.300
  0.315
  0.325
  0.320
  0.310
  0.300
  0.305
  0.325
  0.330
  0.330
  0.310
  0.300
  0.280
  0.295
  0.320
  0.310
  0.325
  0.305
  0.315
  0.315
  0.320
  0.310
  0.280
  0.265
  0.255
  0.290
  0.310
  0.290
  0.270
  0.275
  0.270
  0.275
  0.275
  0.265
  0.255
  0.260
  0.280
  0.285
  0.265
  0.255
  0.245
  0.240
  0.200
  0.200
  0.210
  0.235
  0.205
  0.185
  0.165
  0.185
  0.175
  0.175
  0.155
  0.135
  0.140
  0.155
  0.140
  0.125
  0.095
  0.060
  0.050
  0.055
  0.055
  0.030
  0.020
  0.005
 -0.015
 -0.010
 -0.035
 -0.050
 -0.065
 -0.075
 -0.070
 -0.055
 -0.055
 -0.060
 -0.055
 -0.060
 -0.055
 -0.055
 -0.060
 -0.065
 -0.090
 -0.090
 -0.105
 -0.105
 -0.100
 -0.100
 -0.115
 -0.120
 -0.105
 -0.090
 -0.080
 -0.080
 -0.085
 -0.085
 -0.080
 -0.045
 -0.045
 -0.055
 -0.070
 -0.085
 -0.075
 -0.050
 -0.035
 -0.030
 -0.020
 -0.025
 -0.030
 -0.020
 -0.015
  0.000
  0.005
  0.005
  0.015
  0.035
  0.060
  0.085
  0.090
  0.075
  0.065
  0.105
  0.150
  0.160
  0.145
  0.140
  0.120
  0.110
  0.095
  0.115
  0.115
  0.100
  0.100
  0.105
  0.140
  0.145
  0.155
  0.170
  0.190
  0.200
  0.200
  0.195
  0.195
  0.180
  0.175
  0.185
  0.210
  0.235
  0.220
  0.200
  0.180
  0.190
  0.140
  0.075
 -0.035
 -0.150
 -0.225
 -0.275
 -0.350
 -0.430
 -0.505
 -0.580
 -0.650
 -0.700
 -0.730
 -0.790
 -0.900
 -1.060
 -1.240
 -1.355
 -1.390
 -1.330
 -1.175
 -0.925
 -0.625
 -0.335
 -0.055
  0.210
  0.435
  0.650
  0.845
  1.025
  1.125
  1.170
  1.175
  1.135
  1.060
  1.030
  1.000
  0.975
  0.920
  0.795
  0.645
  0.530
  0.430
  0.365
  0.275
  0.180
  0.115
  0.100
  0.080
  0.050
  0.005
 -0.045
 -0.065
 -0.040
 -0.045
 -0.050
 -0.060
 -0.085
 -0.115
 -0.115
 -0.115
 -0.120
 -0.160
 -0.190
 -0.200
 -0.190
 -0.170
 -0.165
 -0.185
 -0.215
 -0.205
 -0.185
 -0.175
 -0.170
 -0.190
 -0.225
 -0.190
 -0.170
 -0.145
 -0.130
 -0.140
 -0.125
 -0.140
 -0.145
 -0.135
 -0.130
 -0.155
 -0.150
 -0.145
 -0.140
 -0.140
 -0.175
 -0.200
 -0.205
 -0.220
 -0.200
 -0.230
 -0.265
 -0.305
 -0.355
 -0.380
 -0.375
 -0.370
 -0.395
 -0.415
 -0.435
 -0.450
 -0.465
 -0.465
 -0.465
 -0.470
 -0.465
 -0.485
 -0.495
 -0.485
 -0.490
 -0.480
 -0.505
 -0.515
 -0.485
 -0.470
 -0.470
 -0.480
 -0.505
 -0.520
 -0.515
 -0.475
 -0.460
 -0.465
 -0.465
 -0.470
 -0.445
 -0.425
 -0.420
 -0.435
 -0.425
 -0.415
 -0.380
 -0.350
 -0.345
 -0.325
 -0.305
 -0.305
 -0.290
 -0.275
 -0.255
 -0.245
 -0.225
 -0.175
 -0.150
 -0.105
 -0.080
 -0.060
 -0.065
 -0.040
 -0.015
 -0.005
  0.015
 -0.005
 -0.005
  0.000
  0.040
  0.070
  0.070
  0.075
  0.080
  0.095
  0.105
  0.105
  0.115
  0.120
  0.120
  0.100
  0.120
  0.130
  0.130
  0.140
  0.135
  0.140
  0.170
  0.170
  0.170
  0.165
  0.155
  0.140
  0.135
  0.160
  0.155
  0.135
  0.125
  0.120
  0.120
  0.140
  0.120
  0.095
  0.100
  0.095
  0.110
  0.130
  0.150
  0.130
  0.125
  0.110
  0.115
  0.120
  0.115
  0.120
  0.120
  0.120
  0.140
  0.135
  0.140
  0.125
  0.105
  0.100
  0.095
  0.105
  0.110
  0.105
  0.095
  0.085
  0.080
  0.095
  0.105
  0.100
  0.090
  0.085
  0.100
  0.115
  0.100
  0.090
  0.075
  0.070
  0.080
  0.115
  0.105
  0.100
  0.095
  0.100
  0.115
  0.120
  0.095
  0.075
  0.055
  0.040
  0.070
  0.090
  0.125
  0.135
  0.125
  0.100
  0.090
  0.080
  0.085
  0.095
  0.085
  0.075
  0.085
  0.080
  0.085
  0.070
  0.065
  0.060
  0.060
  0.070
  0.090
  0.080
  0.075
  0.090
  0.095
  0.100
  0.085
  0.090
  0.085
  0.100
  0.120
  0.125
  0.100
  0.075
  0.065
  0.050
  0.065
  0.075
  0.075
  0.080
  0.055
  0.045
  0.050
  0.050
  0.045
  0.040
  0.025
  0.040
  0.055
  0.055
  0.060
  0.055
  0.030
  0.020
  0.035
  0.060
  0.065
  0.075
  0.055
  0.025
  0.035
  0.050
  0.065
  0.045
  0.030
  0.020
  0.015
  0.015
  0.045
  0.060
  0.080
  0.075
  0.080
  0.080
  0.080
  0.085
  0.090
  0.110
  0.105
  0.115
  0.140
  0.135
  0.115
  0.120
  0.145
  0.175
  0.165
  0.120
  0.065
 -0.005
 -0.035
 -0.050
 -0.070
 -0.105
 -0.115
 -0.110
 -0.095
 -0.070
 -0.085
 -0.105
 -0.125
 -0.125
 -0.130
 -0.105
 -0.105
 -0.105
 -0.115
 -0.125
 -0.130
 -0.130
 -0.135
 -0.160
 -0.185
 -0.205
 -0.195
 -0.200
 -0.210
 -0.225
 -0.245
 -0.255
 -0.235
 -0.230
 -0.225
 -0.215
 -0.215
 -0.235
 -0.215
 -0.200
 -0.195
 -0.200
 -0.210
 -0.230
 -0.220
 -0.175
 -0.160
 -0.135
 -0.115
 -0.100
 -0.065
 -0.040
 -0.005
 -0.010
 -0.020
 -0.025
 -0.030
 -0.020
 -0.025
 -0.035
 -0.070
 -0.075
 -0.045
 -0.025
 -0.025
 -0.015
 -0.020
 -0.025
 -0.025
 -0.075
 -0.105
 -0.125
 -0.240
 -0.455
 -0.695
 -0.950
 -1.220
 -1.520
 -1.885
 -2.230
 -2.520
 -2.710
 -2.770
 -2.745
 -2.610
 -2.265
 -1.650
 -1.015
 -0.405
 -0.120
  0.000
  0.070
  0.135
  0.145
  0.115
  0.100
  0.100
  0.105
  0.140
  0.150
  0.175
  0.170
  0.145
  0.155
  0.175
  0.190
  0.195
  0.180
  0.175
  0.175
  0.180
  0.200
  0.210
  0.200
  0.185
  0.155
  0.165
  0.175
  0.190
  0.185
  0.185
  0.200
  0.210
  0.200
  0.185
  0.195
  0.180
  0.165
  0.155
  0.160
  0.180
  0.190
  0.175
  0.165
  0.175
  0.190
  0.200
  0.190
  0.170
  0.165
  0.160
  0.155
  0.155
  0.150
  0.135
  0.130
  0.150
  0.155
  0.150
  0.150
  0.130
  0.110
  0.110
  0.115
  0.120
  0.110
  0.075
  0.040
  0.050
  0.060
  0.060
  0.045
  0.030
  0.005
  0.015
  0.015
  0.025
 -0.005
 -0.045
 -0.060
 -0.070
 -0.060
 -0.070
 -0.070
 -0.080
 -0.095
 -0.105
 -0.125
 -0.125
 -0.125
 -0.155
 -0.165
 -0.160
 -0.155
 -0.150
 -0.155
 -0.150
 -0.170
 -0.175
 -0.160
 -0.165
 -0.175
 -0.200
 -0.215
 -0.205
 -0.185
 -0.170
 -0.165
 -0.155
 -0.180
 -0.165
 -0.155
 -0.160
 -0.155
 -0.160
 -0.130
 -0.115
 -0.100
 -0.110
 -0.125
 -0.135
 -0.155
 -0.155
 -0.135
 -0.105
 -0.075
 -0.075
 -0.095
 -0.105
 -0.090
 -0.065
 -0.060
 -0.070
 -0.070
 -0.060
 -0.040
 -0.025
 -0.025
 -0.045
 -0.060
 -0.045
 -0.025
  0.005
  0.000
  0.000
  0.010
  0.050
  0.065
  0.050
  0.045
  0.035
  0.035
  0.055
  0.070
  0.085
  0.095
  0.090
  0.090
  0.090
  0.085
  0.085
  0.070
  0.070
  0.075
  0.080
  0.115
  0.100
  0.095
  0.105
  0.110
  0.125
  0.130
  0.125
  0.110
  0.060
 -0.005
 -0.100
 -0.200
 -0.290
 -0.355
 -0.405
 -0.465
 -0.530
 -0.620
 -0.705
 -0.755
 -0.840
 -0.930
 -1.025
 -1.155
 -1.335
 -1.495
 -1.560
 -1.470
 -1.210
 -0.880
 -0.580
 -0.315
 -0.075
  0.140
  0.325
  0.500
  0.650
  0.755
  0.865
  0.965
  0.990
  0.940
  0.925
  0.900
  0.860
  0.800
  0.650
  0.455
  0.300
  0.215
  0.140
  0.085
  0.050
 -0.005
 -0.045
 -0.100
 -0.145
 -0.170
 -0.185
 -0.175
 -0.170
 -0.170
 -0.195
 -0.230
 -0.245
 -0.220
 -0.235
 -0.250
 -0.260
 -0.245
 -0.230
 -0.220
 -0.230
 -0.225
 -0.215
 -0.200
 -0.195
 -0.205
 -0.205
 -0.190
 -0.200
 -0.220
 -0.225
 -0.220
 -0.200
 -0.185
 -0.185
 -0.205
 -0.195
 -0.220
 -0.260
 -0.295
 -0.340
 -0.355
 -0.350
 -0.315
 -0.315
 -0.340
 -0.375
 -0.425
 -0.445
 -0.445
 -0.450
 -0.450
 -0.475
 -0.495
 -0.510
 -0.515
 -0.535
 -0.560
 -0.560
 -0.565
 -0.560
 -0.555
 -0.555
 -0.550
 -0.565
 -0.585
 -0.585
 -0.570
 -0.550
 -0.550
 -0.560
 -0.550
 -0.550
 -0.545
 -0.545
 -0.525
 -0.505
 -0.490
 -0.440
 -0.415
 -0.390
 -0.385
 -0.390
 -0.390
 -0.360
 -0.320
 -0.290
 -0.255
 -0.245
 -0.235
 -0.220
 -0.205
 -0.190
 -0.180
 -0.160
 -0.160
 -0.120
 -0.085
 -0.065
 -0.045
 -0.040
 -0.035
 -0.025
 -0.010
  0.010
  0.025
  0.030
  0.015
  0.025
  0.035
  0.045
  0.050
  0.035
  0.040
  0.045
  0.045
  0.050
  0.045
  0.035
  0.030
  0.035
  0.055
  0.055
  0.050
  0.045
  0.025
  0.020
  0.035
  0.050
  0.040
  0.055
  0.045
  0.060
  0.055
  0.035
  0.020
  0.005
 -0.020
  0.000
  0.005
 -0.010
 -0.010
 -0.025
 -0.045
 -0.040
 -0.005
 -0.005
 -0.005
  0.010
 -0.005
  0.015
  0.015
  0.000
 -0.015
 -0.040
 -0.050
 -0.050
 -0.030
 -0.015
 -0.005
 -0.010
 -0.020
 -0.030
 -0.030
 -0.035
 -0.050
 -0.070
 -0.075
 -0.085
 -0.070
 -0.080
 -0.070
 -0.060
 -0.050
 -0.060
 -0.040
 -0.050
 -0.055
 -0.075
 -0.100
 -0.095
 -0.100
 -0.090
 -0.095
 -0.105
 -0.130
 -0.135
 -0.145
 -0.135
 -0.115
 -0.120
 -0.100
 -0.090
 -0.060
 -0.055
 -0.075
 -0.090
 -0.115
 -0.110
 -0.105
 -0.085
 -0.095
 -0.110
 -0.125
 -0.115
 -0.105
 -0.100
 -0.110
 -0.115
 -0.140
 -0.130
 -0.110
 -0.110
 -0.110
 -0.130
 -0.140
 -0.125
 -0.105
 -0.110
 -0.120
 -0.135
 -0.150
 -0.150
 -0.130
 -0.140
 -0.140
 -0.150
 -0.160
 -0.145
 -0.125
 -0.120
 -0.125
 -0.125
 -0.135
 -0.145
 -0.135
 -0.125
 -0.115
 -0.115
 -0.105
 -0.090
 -0.060
 -0.045
 -0.060
 -0.075
 -0.080
 -0.065
 -0.035
 -0.040
 -0.035
 -0.035
 -0.085
 -0.100
 -0.145
 -0.185
 -0.220
 -0.245
 -0.275
 -0.260
 -0.265
 -0.250
 -0.240
 -0.255
 -0.260
 -0.270
 -0.260
 -0.275
 -0.270
 -0.285
 -0.300
 -0.295
 -0.300
 -0.305
 -0.320
 -0.330
 -0.345
 -0.325
 -0.340
 -0.345
 -0.350
 -0.360
 -0.380
 -0.385
 -0.385
 -0.380
 -0.375
 -0.380
 -0.385
 -0.375
 -0.355
 -0.340
 -0.315
 -0.330
 -0.325
 -0.300
 -0.290
 -0.270
 -0.260
 -0.245
 -0.255
 -0.220
 -0.200
 -0.185
 -0.170
 -0.185
 -0.195
 -0.185
 -0.165
 -0.180
 -0.185
 -0.190
 -0.205
 -0.200
 -0.195
 -0.180
 -0.185
 -0.205
 -0.210
 -0.210
 -0.230
 -0.275
 -0.325
 -0.390
 -0.455
 -0.585
 -0.795
 -1.035
 -1.315
 -1.640
 -1.950
 -2.215
 -2.370
 -2.410
 -2.340
 -2.175
 -1.825
 -1.355
 -0.895
 -0.545
 -0.345
 -0.215
 -0.135
 -0.090
 -0.050
 -0.025
 -0.015
  0.005
  0.020
  0.035
  0.055
  0.070
  0.065
  0.070
  0.070
  0.075
  0.090
  0.080
  0.085
  0.075
  0.060
  0.075
  0.085
  0.100
  0.090
  0.070
  0.070
  0.075
  0.080
  0.090
  0.080
  0.095
  0.095
  0.105
  0.085
  0.095
  0.085
  0.070
  0.065
  0.075
  0.085
  0.095
  0.080
  0.070
  0.075
  0.080
  0.080
  0.085
  0.075
  0.070
  0.065
  0.075
  0.075
  0.075
  0.080
  0.060
  0.035
  0.045
  0.045
  0.040
  0.040
  0.025
 -0.005
  0.005
  0.005
  0.020
 -0.005
 -0.025
 -0.065
 -0.060
 -0.055
 -0.045
 -0.050
 -0.080
 -0.095
 -0.090
 -0.105
 -0.090
 -0.120
 -0.150
 -0.170
 -0.175
 -0.170
 -0.160
 -0.170
 -0.185
 -0.210
 -0.190
 -0.195
 -0.185
 -0.175
 -0.205
 -0.215
 -0.210
 -0.200
 -0.200
 -0.205
 -0.215
 -0.220
 -0.200
 -0.175
 -0.170
 -0.170
 -0.180
 -0.185
 -0.175
 -0.150
 -0.130
 -0.120
 -0.125
 -0.130
 -0.135
 -0.130
 -0.120
 -0.125
 -0.125
 -0.125
 -0.110
 -0.110
 -0.105
 -0.095
 -0.105
 -0.095
 -0.090
 -0.075
 -0.050
 -0.050
 -0.065
 -0.060
 -0.035
 -0.015
 -0.015
  0.005
 -0.005
 -0.010
  0.005
  0.015
  0.015
  0.010
  0.000
  0.005
  0.015
  0.055
  0.060
  0.055
  0.045
  0.035
  0.045
  0.050
  0.070
  0.070
  0.065
  0.055
  0.055
  0.040
 -0.005
 -0.080
 -0.155
 -0.240
 -0.290
 -0.360
 -0.410
 -0.465
 -0.535
 -0.605
 -0.660
 -0.695
 -0.735
 -0.785
 -0.880
 -1.010
 -1.090
 -1.090
 -0.975
 -0.770
 -0.540
 -0.340
 -0.125
  0.075
  0.255
  0.420
  0.575
  0.720
  0.815
  0.875
  0.920
  0.915
  0.895
  0.845
  0.820
  0.800
  0.755
  0.650
  0.505
  0.385
  0.295
  0.230
  0.160
  0.115
  0.075
  0.020
 -0.020
 -0.045
 -0.075
 -0.095
 -0.115
 -0.135
 -0.145
 -0.140
 -0.155
 -0.160
 -0.185
 -0.200
 -0.210
 -0.195
 -0.195
 -0.215
 -0.220
 -0.235
 -0.230
 -0.235
 -0.230
 -0.220
 -0.230
 -0.245
 -0.240
 -0.215
 -0.205
 -0.205
 -0.215
 -0.225
 -0.210
 -0.180
 -0.170
 -0.180
 -0.195
 -0.230
 -0.250
 -0.250
 -0.260
 -0.280
 -0.295
 -0.320
 -0.330
 -0.335
 -0.325
 -0.340
 -0.365
 -0.405
 -0.420
 -0.430
 -0.435
 -0.440
 -0.465
 -0.485
 -0.490
 -0.490
 -0.475
 -0.475
 -0.500
 -0.520
 -0.525
 -0.515
 -0.500
 -0.505
 -0.530
 -0.540
 -0.540
 -0.540
 -0.535
 -0.545
 -0.555
 -0.530
 -0.495
 -0.465
 -0.465
 -0.475
 -0.480
 -0.460
 -0.440
 -0.410
 -0.400
 -0.375
 -0.350
 -0.330
 -0.305
 -0.250
 -0.210
 -0.195
 -0.180
 -0.170
 -0.140
 -0.110
 -0.090
 -0.070
 -0.055
 -0.040
 -0.025
 -0.005
  0.010
  0.015
  0.030
  0.045
  0.055
  0.070
  0.090
  0.100
  0.070
  0.065
  0.080
  0.110
  0.115
  0.110
  0.095
  0.070
  0.070
  0.075
  0.100
  0.110
  0.110
  0.100
  0.100
  0.115
  0.130
  0.145
  0.135
  0.135
  0.140
  0.135
  0.120
  0.105
  0.065
  0.055
  0.065
  0.080
  0.090
  0.095
  0.070
  0.045
  0.050
  0.045
  0.045
  0.055
  0.045
  0.015
  0.015
  0.015
  0.015
  0.030
  0.040
  0.040
  0.030
  0.035
  0.020
  0.015
 -0.010
 -0.010
 -0.005
  0.010
  0.015
  0.020
 -0.005
 -0.025
 -0.025
 -0.010
  0.000
  0.005
 -0.005
 -0.005
 -0.020
 -0.015
  0.005
 -0.005
 -0.020
 -0.035
 -0.030
 -0.010
 -0.010
 -0.025
 -0.025
 -0.040
 -0.040
 -0.010
  0.010
  0.005
 -0.005
 -0.025
 -0.025
 -0.015
 -0.030
 -0.030
 -0.040
 -0.060
 -0.055
 -0.055
 -0.055
 -0.050
 -0.065
 -0.085
 -0.095
 -0.075
 -0.075
 -0.070
 -0.070
 -0.070
 -0.060
 -0.055
 -0.055
 -0.055
 -0.055
 -0.055
 -0.055
 -0.050
 -0.055
 -0.065
 -0.090
 -0.105
 -0.090
 -0.075
 -0.055
 -0.040
 -0.065
 -0.085
 -0.115
 -0.125
 -0.125
 -0.115
 -0.090
 -0.090
 -0.090
 -0.090
 -0.070
 -0.065
 -0.065
 -0.085
 -0.125
 -0.135
 -0.150
 -0.145
 -0.135
 -0.135
 -0.115
 -0.090
 -0.080
 -0.070
 -0.070
 -0.065
 -0.060
 -0.050
 -0.055
 -0.040
 -0.060
 -0.060
 -0.030
  0.000
  0.015
  0.030
  0.005
 -0.030
 -0.085
 -0.115
 -0.145
 -0.170
 -0.175
 -0.180
 -0.185
 -0.180
 -0.185
 -0.170
 -0.180
 -0.185
 -0.175
 -0.165
 -0.160
 -0.170
 -0.195
 -0.205
 -0.205
 -0.215
 -0.215
 -0.230
 -0.240
 -0.260
 -0.250
 -0.245
 -0.265
 -0.275
 -0.270
 -0.285
 -0.285
 -0.295
 -0.290
 -0.275
 -0.270
 -0.275
 -0.260
 -0.270
 -0.260
 -0.260
 -0.245
 -0.225
 -0.190
 -0.165
 -0.155
 -0.165
 -0.185
 -0.175
 -0.150
 -0.105
 -0.070
 -0.075
 -0.095
 -0.110
 -0.100
 -0.085
 -0.070
 -0.065
 -0.075
 -0.080
 -0.095
 -0.080
 -0.080
 -0.065
 -0.090
 -0.120
 -0.145
 -0.150
 -0.170
 -0.240
 -0.470
 -0.780
 -1.100
 -1.440
 -1.785
 -2.185
 -2.525
 -2.715
 -2.750
 -2.665
 -2.460
 -2.055
 -1.430
 -0.810
 -0.365
 -0.115
  0.015
  0.070
  0.075
  0.060
  0.065
  0.115
  0.125
  0.125
  0.135
  0.130
  0.135
  0.155
  0.180
  0.215
  0.210
  0.170
  0.160
  0.185
  0.195
  0.180
  0.155
  0.135
  0.125
  0.150
  0.190
  0.215
  0.200
  0.165
  0.175
  0.175
  0.180
  0.180
  0.180
  0.175
  0.175
  0.175
  0.195
  0.190
  0.155
  0.155
  0.190
  0.200
  0.195
  0.165
  0.155
  0.160
  0.155
  0.145
  0.150
  0.170
  0.185
  0.160
  0.165
  0.170
  0.145
  0.115
  0.075
  0.060
  0.050
  0.055
  0.065
  0.075
  0.040
  0.015
  0.020
  0.035
  0.020
  0.015
 -0.020
 -0.060
 -0.085
 -0.090
 -0.070
 -0.045
 -0.070
 -0.095
 -0.095
 -0.095
 -0.100
 -0.100
 -0.125
 -0.145
 -0.135
 -0.125
 -0.120
 -0.145
 -0.195
 -0.210
 -0.195
 -0.165
 -0.145
 -0.130
 -0.125
 -0.125
 -0.125
 -0.145
 -0.155
 -0.175
 -0.175
 -0.170
 -0.150
 -0.140
 -0.135
 -0.145
 -0.140
 -0.115
 -0.110
 -0.120
 -0.110
 -0.115
 -0.125
 -0.150
 -0.150
 -0.130
 -0.105
 -0.080
 -0.070
 -0.075
 -0.070
 -0.085
 -0.085
 -0.070
 -0.060
 -0.050
 -0.035
 -0.030
 -0.035
 -0.045
 -0.040
 -0.015
  0.000
  0.030
  0.030
  0.050
  0.025
 -0.005
  0.010
  0.030
  0.050
  0.065
  0.060
  0.050
  0.065
  0.070
  0.085
  0.120
  0.125
  0.120
  0.125
  0.120
  0.120
  0.110
  0.105
  0.095
  0.125
  0.140
  0.165
  0.120
  0.050
 -0.060
 -0.175
 -0.255
 -0.300
 -0.350
 -0.415
 -0.470
 -0.530
 -0.585
 -0.650
 -0.690
 -0.760
 -0.830
 -0.915
 -1.025
 -1.175
 -1.305
 -1.335
 -1.225
 -0.965
 -0.660
 -0.390
 -0.145
  0.095
  0.300
  0.505
  0.720
  0.920
  1.045
  1.120
  1.170
  1.205
  1.185
  1.115
  1.040
  0.995
  0.925
  0.800
  0.655
  0.500
  0.360
  0.265
  0.200
  0.170
  0.110
  0.065
  0.035
  0.000
 -0.045
 -0.090
 -0.110
 -0.110
 -0.125
 -0.155
 -0.180
 -0.195
 -0.195
 -0.210
 -0.220
 -0.220
 -0.205
 -0.210
 -0.235
 -0.235
 -0.235
 -0.240
 -0.225
 -0.220
 -0.210
 -0.230
 -0.250
 -0.250
 -0.235
 -0.230
 -0.225
 -0.240
 -0.250
 -0.265
 -0.275
 -0.285
 -0.270
 -0.260
 -0.255
 -0.240
 -0.240
 -0.245
 -0.260
 -0.270
 -0.305
 -0.340
 -0.360
 -0.370
 -0.370
 -0.350
 -0.345
 -0.355
 -0.390
 -0.420
 -0.455
 -0.465
 -0.485
 -0.515
 -0.560
 -0.585
 -0.570
 -0.570
 -0.565
 -0.595
 -0.625
 -0.625
 -0.600
 -0.585
 -0.570
 -0.585
 -0.580
 -0.575
 -0.585
 -0.580
 -0.590
 -0.595
 -0.610
 -0.605
 -0.580
 -0.555
 -0.545
 -0.545
 -0.565
 -0.570
 -0.560
 -0.540
 -0.545
 -0.525
 -0.495
 -0.470
 -0.445
 -0.405
 -0.385
 -0.375
 -0.380
 -0.370
 -0.360
 -0.330
 -0.300
 -0.285
 -0.265
 -0.230
 -0.180
 -0.175
 -0.160
 -0.150
 -0.130
 -0.110
 -0.065
 -0.020
  0.005
  0.015
  0.015
  0.020
  0.035
  0.035
  0.015
 -0.005
  0.010
  0.050
  0.070
  0.080
  0.075
  0.050
  0.030
  0.040
  0.070
  0.100
  0.125
  0.095
  0.110
  0.110
  0.120
  0.130
  0.120
  0.090
  0.075
  0.090
  0.100
  0.110
  0.095
  0.075
  0.055
  0.040
  0.065
  0.080
  0.090
  0.085
  0.075
  0.080
  0.095
  0.095
  0.070
  0.070
  0.065
  0.075
  0.090
  0.100
  0.075
  0.040
  0.020
  0.020
  0.045
  0.045
  0.055
  0.055
  0.060
  0.070
  0.085
  0.070
  0.050
  0.030
  0.035
  0.035
  0.050
  0.070
  0.075
  0.055
  0.040
  0.020
  0.025
  0.070
  0.065
  0.040
  0.025
  0.015
  0.020
  0.035
  0.030
  0.030
  0.030
  0.015
  0.000
 -0.010
 -0.005
 -0.010
 -0.005
 -0.015
 -0.010
 -0.005
 -0.015
 -0.025
 -0.055
 -0.040
  0.005
  0.040
  0.035
  0.015
 -0.005
 -0.015
 -0.015
 -0.005
 -0.015
 -0.040
 -0.045
 -0.030
 -0.005
  0.025
  0.030
  0.005
 -0.035
 -0.070
 -0.060
 -0.035
 -0.025
 -0.030
 -0.030
 -0.030
 -0.025
 -0.035
 -0.040
 -0.060
 -0.080
 -0.070
 -0.060
 -0.060
 -0.050
 -0.065
 -0.075
 -0.080
 -0.070
 -0.050
 -0.035
 -0.030
 -0.050
 -0.050
 -0.035
 -0.025
 -0.040
 -0.050
 -0.055
 -0.055
 -0.065
 -0.060
 -0.050
 -0.035
 -0.045
 -0.070
 -0.055
 -0.040
 -0.040
 -0.035
 -0.035
 -0.035
 -0.035
 -0.045
 -0.060
 -0.040
 -0.035
 -0.015
  0.015
  0.040
  0.020
  0.010
  0.005
  0.010
  0.055
  0.090
  0.080
  0.075
  0.065
 -0.005
 -0.080
 -0.140
 -0.185
 -0.180
 -0.175
 -0.160
 -0.140
 -0.115
 -0.150
 -0.165
 -0.200
 -0.220
 -0.215
 -0.195
 -0.165
 -0.155
 -0.120
 -0.120
 -0.130
 -0.150
 -0.185
 -0.215
 -0.210
 -0.225
 -0.210
 -0.180
 -0.175
 -0.185
 -0.210
 -0.235
 -0.255
 -0.260
 -0.255
 -0.270
 -0.260
 -0.255
 -0.240
 -0.245
 -0.260
 -0.255
 -0.235
 -0.220
 -0.200
 -0.175
 -0.165
 -0.150
 -0.110
 -0.115
 -0.090
 -0.095
 -0.110
 -0.090
 -0.060
 -0.035
 -0.020
 -0.035
 -0.035
 -0.035
 -0.025
 -0.040
 -0.045
 -0.045
 -0.090
 -0.125
 -0.115
 -0.100
 -0.050
 -0.020
 -0.005
 -0.030
 -0.085
 -0.185
 -0.220
 -0.235
 -0.350
 -0.620
 -0.910
 -1.215
 -1.515
 -1.850
 -2.190
 -2.475
 -2.645
 -2.700
 -2.655
 -2.545
 -2.325
 -1.905
 -1.295
 -0.685
 -0.215
  0.025
  0.110
  0.130
  0.145
  0.155
  0.160
  0.195
  0.185
  0.160
  0.140
  0.140
  0.135
  0.185
  0.220
  0.220
  0.215
  0.195
  0.210
  0.210
  0.215
  0.205
  0.210
  0.200
  0.235
  0.270
  0.290
  0.260
  0.250
  0.250
  0.250
  0.235
  0.215
  0.205
  0.185
  0.155
  0.160
  0.150
  0.175
  0.195
  0.210
  0.220
  0.225
  0.245
  0.240
  0.210
  0.205
  0.195
  0.230
  0.230
  0.255
  0.245
  0.225
  0.200
  0.170
  0.175
  0.180
  0.210
  0.175
  0.140
  0.155
  0.165
  0.180
  0.175
  0.160
  0.140
  0.130
  0.135
  0.115
  0.075
  0.060
  0.065
  0.090
  0.095
  0.070
  0.045
  0.020
  0.005
  0.015
 -0.015
 -0.030
 -0.035
 -0.030
 -0.040
 -0.055
 -0.080
 -0.120
 -0.155
 -0.160
 -0.155
 -0.145
 -0.140
 -0.145
 -0.175
 -0.195
 -0.195
 -0.185
 -0.175
 -0.170
 -0.170
 -0.180
 -0.195
 -0.195
 -0.175
 -0.160
 -0.165
 -0.185
 -0.210
 -0.205
 -0.200
 -0.205
 -0.195
 -0.180
 -0.225
 -0.235
 -0.200
 -0.175
 -0.170
 -0.150
 -0.150
 -0.125
 -0.130
 -0.135
 -0.165
 -0.170
 -0.155
 -0.140
 -0.130
 -0.100
 -0.080
 -0.095
 -0.115
 -0.125
 -0.130
 -0.115
 -0.115
 -0.120
 -0.120
 -0.100
 -0.070
 -0.050
 -0.030
 -0.015
 -0.010
 -0.010
 -0.005
 -0.010
 -0.030
 -0.035
 -0.030
  0.000
  0.025
  0.055
  0.040
  0.040
  0.025
  0.050
  0.060
  0.065
  0.080
  0.060
  0.050
  0.060
  0.065
  0.070
  0.095
  0.085
  0.075
  0.090
  0.110
  0.105
  0.105
  0.105
  0.090
  0.110
  0.140
  0.145
  0.130
  0.115
  0.075
 -0.010
 -0.100
 -0.180
 -0.220
 -0.270
 -0.350
 -0.390
 -0.410
 -0.465
 -0.545
 -0.640
 -0.705
 -0.745
 -0.830
 -0.930
 -1.070
 -1.195
 -1.295
 -1.300
 -1.210
 -1.020
 -0.745
 -0.440
 -0.205
  0.035
  0.275
  0.475
  0.640
  0.800
  0.930
  1.015
  1.055
  1.075
  1.095
  1.075
  1.025
  0.985
  0.965
  0.930
  0.880
  0.835
  0.745
  0.625
  0.505
  0.405
  0.325
  0.220
  0.140
  0.090
  0.060
  0.020
 -0.035
 -0.090
 -0.125
 -0.110
 -0.115
 -0.140
 -0.180
 -0.210
 -0.220
 -0.205
 -0.205
 -0.205
 -0.215
 -0.225
 -0.245
 -0.250
 -0.260
 -0.270
 -0.280
 -0.295
 -0.280
 -0.260
 -0.235
 -0.220
 -0.225
 -0.245
 -0.270
 -0.270
 -0.280
 -0.275
 -0.270
 -0.285
 -0.285
 -0.250
 -0.240
 -0.230
 -0.230
 -0.255
 -0.245
 -0.205
 -0.180
 -0.190
 -0.210
 -0.235
 -0.255
 -0.265
 -0.270
 -0.285
 -0.300
 -0.320
 -0.335
 -0.355
 -0.365
 -0.380
 -0.400
 -0.405
 -0.430
 -0.440
 -0.465
 -0.470
 -0.480
 -0.505
 -0.505
 -0.485
 -0.470
 -0.450
 -0.445
 -0.445
 -0.470
 -0.475
 -0.495
 -0.520
 -0.535
 -0.525
 -0.510
 -0.490
 -0.490
 -0.495
 -0.510
 -0.535
 -0.530
 -0.510
 -0.465
 -0.460
 -0.475
 -0.510
 -0.520
 -0.495
 -0.470
 -0.435
 -0.430
 -0.425
 -0.425
 -0.395
 -0.365
 -0.340
 -0.300
 -0.275
 -0.285
 -0.240
 -0.220
 -0.200
 -0.215
 -0.220
 -0.205
 -0.170
 -0.140
 -0.125
 -0.125
 -0.100
 -0.105
 -0.085
 -0.085
 -0.065
 -0.040
 -0.040
 -0.030
  0.000
  0.025
  0.035
  0.035
  0.030
  0.025
  0.045
  0.070
  0.080
  0.045
  0.020
 -0.005
  0.010
  0.050
  0.070
  0.070
  0.060
  0.060
  0.070
  0.060
  0.015
 -0.005
  0.015
  0.035
  0.060
  0.065
  0.065
  0.035
  0.005
 -0.005
  0.020
  0.020
  0.015
 -0.010
 -0.025
 -0.005
  0.025
  0.050
  0.045
  0.035
  0.035
  0.045
  0.045
  0.025
  0.000
 -0.010
  0.005
  0.020
  0.045
  0.055
  0.050
  0.045
  0.015
 -0.010
 -0.030
 -0.045
 -0.055
 -0.045
 -0.015
 -0.010
  0.000
  0.005
  0.000
  0.000
  0.000
 -0.010
  0.015
  0.020
  0.030
  0.040
  0.025
 -0.025
 -0.055
 -0.045
 -0.035
 -0.060
 -0.070
 -0.060
 -0.030
 -0.005
 -0.015
 -0.055
 -0.055
 -0.070
 -0.065
 -0.060
 -0.045
 -0.025
 -0.025
 -0.025
 -0.055
 -0.065
 -0.030
  0.005
 -0.005
 -0.050
 -0.055
 -0.055
 -0.050
 -0.055
 -0.050
 -0.050
 -0.040
 -0.020
 -0.030
 -0.055
 -0.070
 -0.080
 -0.070
 -0.075
 -0.095
 -0.100
 -0.090
 -0.090
 -0.050
  0.000
  0.010
 -0.015
 -0.055
 -0.075
 -0.065
 -0.045
 -0.030
 -0.015
 -0.025
 -0.045
 -0.070
 -0.055
 -0.050
 -0.035
 -0.055
 -0.080
 -0.095
 -0.095
 -0.075
 -0.090
 -0.100
 -0.090
 -0.055
  0.000
  0.000
 -0.005
 -0.050
 -0.075
 -0.080
 -0.070
 -0.060
 -0.050
 -0.050
 -0.050
 -0.045
 -0.045
 -0.050
 -0.040
 -0.045
 -0.030
 -0.040
 -0.030
 -0.020
 -0.020
 -0.040
 -0.045
  0.000
  0.050
  0.080
  0.085
  0.060
  0.060
  0.075
  0.080
  0.070
  0.030
 -0.005
  0.015
  0.015
  0.000
 -0.045
 -0.085
 -0.095
 -0.105
 -0.090
 -0.095
 -0.120
 -0.155
 -0.165
 -0.175
 -0.155
 -0.135
 -0.105
 -0.110
 -0.140
 -0.150
 -0.160
 -0.170
 -0.160
 -0.175
 -0.185
 -0.180
 -0.165
 -0.155
 -0.165
 -0.185
 -0.195
 -0.205
 -0.220
 -0.215
 -0.235
 -0.245
 -0.235
 -0.215
 -0.210
 -0.200
 -0.180
 -0.200
 -0.240
 -0.260
 -0.265
 -0.265
 -0.240
 -0.230
 -0.190
 -0.175
 -0.145
 -0.135
 -0.155
 -0.190
 -0.185
 -0.170
 -0.150
 -0.125
 -0.095
 -0.095
 -0.070
 -0.035
  0.000
  0.015
  0.000
 -0.035
 -0.065
 -0.045
 -0.025
  0.005
  0.010
  0.015
 -0.005
 -0.045
 -0.040
 -0.055
 -0.055
 -0.045
 -0.030
 -0.010
  0.010
  0.020
  0.020
 -0.015
 -0.065
 -0.090
 -0.095
 -0.125
 -0.250
 -0.480
 -0.750
 -0.990
 -1.235
 -1.525
 -1.850
 -2.155
 -2.405
 -2.545
 -2.615
 -2.625
 -2.595
 -2.525
 -2.360
 -2.075
 -1.570
 -0.935
 -0.385
 -0.035
  0.125
  0.210
  0.290
  0.310
  0.275
  0.210
  0.175
  0.195
  0.260
  0.280
  0.275
  0.250
  0.210
  0.215
  0.240
  0.255
  0.240
  0.240
  0.225
  0.215
  0.215
  0.225
  0.250
  0.245
  0.255
  0.255
  0.265
  0.275
  0.280
  0.285
  0.280
  0.275
  0.255
  0.255
  0.250
  0.240
  0.235
  0.225
  0.235
  0.260
  0.275
  0.280
  0.265
  0.255
  0.270
  0.270
  0.255
  0.245
  0.215
  0.190
  0.205
  0.225
  0.240
  0.240
  0.230
  0.235
  0.260
  0.290
  0.320
  0.305
  0.290
  0.280
  0.305
  0.295
  0.265
  0.200
  0.155
  0.150
  0.165
  0.190
  0.210
  0.210
  0.200
  0.160
  0.125
  0.110
  0.100
  0.095
  0.100
  0.080
  0.085
  0.085
  0.095
  0.110
  0.080
  0.055
  0.040
  0.040
  0.035
  0.020
 -0.015
 -0.040
 -0.020
 -0.030
 -0.050
 -0.090
 -0.140
 -0.155
 -0.145
 -0.120
 -0.095
 -0.095
 -0.110
 -0.100
 -0.100
 -0.120
 -0.115
 -0.125
 -0.130
 -0.140
 -0.115
 -0.115
 -0.145
 -0.180
 -0.195
 -0.175
 -0.155
 -0.120
 -0.120
 -0.140
 -0.150
 -0.155
 -0.145
 -0.150
 -0.160
 -0.175
 -0.195
 -0.195
 -0.145
 -0.105
 -0.080
 -0.085
 -0.130
 -0.140
 -0.115
 -0.110
 -0.110
 -0.110
 -0.115
 -0.105
 -0.090
 -0.075
 -0.060
 -0.045
 -0.050
 -0.085
 -0.095
 -0.065
 -0.045
 -0.025
 -0.025
 -0.005
  0.015
  0.045
  0.070
  0.100
  0.110
  0.095
  0.070
  0.045
  0.045
  0.050
  0.055
  0.070
  0.110
  0.115
  0.140
  0.130
  0.095
  0.085
  0.095
  0.120
  0.135
  0.130
  0.120
  0.110
  0.130
  0.140
  0.165
  0.160
  0.165
  0.150
  0.140
  0.135
  0.130
  0.125
  0.120
  0.115
  0.120
  0.145
  0.140
  0.120
  0.100
  0.090
  0.110
  0.125
  0.125
  0.115
  0.095
  0.095
  0.115
  0.125
  0.155
  0.125
  0.080
  0.060
  0.080
  0.095
  0.105
  0.120
  0.150
  0.195
  0.245
  0.215
  0.115
  0.005
 -0.095
 -0.135
 -0.115
 -0.100
 -0.100
 -0.085
 -0.070
 -0.065
 -0.070
 -0.105
 -0.120
 -0.115
 -0.115
 -0.110
 -0.125
 -0.135
 -0.125
 -0.145
 -0.160
 -0.175
 -0.175
 -0.155
 -0.115
 -0.100
 -0.125
 -0.160
 -0.170
 -0.200
 -0.225
 -0.230
 -0.245
 -0.220
 -0.195
 -0.190
 -0.210
 -0.225
 -0.220
 -0.220
 -0.205
 -0.190
 -0.200
 -0.215
 -0.215
 -0.225
 -0.200
 -0.165
 -0.120
 -0.130
 -0.130
 -0.120
 -0.095
 -0.040
 -0.015
 -0.030
 -0.065
 -0.100
 -0.100
 -0.080
 -0.045
 -0.035
 -0.030
 -0.035
 -0.030
 -0.005
  0.010
  0.010
 -0.040
 -0.075
 -0.075
 -0.045
 -0.010
 -0.020
 -0.055
 -0.105
 -0.110
 -0.115
 -0.180
 -0.380
 -0.675
 -0.960
 -1.225
 -1.540
 -1.890
 -2.210
 -2.420
 -2.535
 -2.540
 -2.490
 -2.325
 -1.965
 -1.365
 -0.730
 -0.145
  0.100
  0.145
  0.175
  0.175
  0.165
  0.165
  0.165
  0.185
  0.200
  0.215
  0.210
  0.235
  0.220
  0.185
  0.180
  0.190
  0.195
  0.205
  0.195
  0.220
  0.230
  0.205
  0.195
  0.200
  0.220
  0.225
  0.215
  0.220
  0.215
  0.205
  0.200
  0.220
  0.220
  0.210
  0.200
  0.195
  0.215
  0.205
  0.170
  0.150
  0.175
  0.210
  0.210
  0.220
  0.210
  0.190
  0.195
  0.160
  0.160
  0.170
  0.180
  0.160
  0.160
  0.160
  0.165
  0.185
  0.180
  0.160
  0.160
  0.160
  0.155
  0.125
  0.105
  0.075
  0.075
  0.090
  0.085
  0.075
  0.080
  0.080
  0.070
  0.060
  0.035
  0.000
 -0.025
 -0.035
 -0.035
 -0.030
 -0.040
 -0.070
 -0.080
 -0.095
 -0.105
 -0.105
 -0.135
 -0.140
 -0.150
 -0.160
 -0.175
 -0.175
 -0.160
 -0.160
 -0.150
 -0.170
 -0.185
 -0.180
 -0.175
 -0.155
 -0.135
 -0.155
 -0.190
 -0.190
 -0.180
 -0.190
 -0.185
 -0.205
 -0.205
 -0.195
 -0.175
 -0.160
 -0.150
 -0.150
 -0.155
 -0.105
 -0.060
 -0.065
 -0.070
 -0.080
 -0.115
 -0.115
 -0.120
 -0.090
 -0.100
 -0.085
 -0.080
 -0.090
 -0.065
 -0.055
 -0.045
 -0.050
 -0.055
 -0.040
 -0.025
 -0.020
 -0.035
 -0.040
 -0.055
 -0.030
  0.000
  0.015
  0.010
  0.005
  0.000
  0.020
  0.040
  0.005
 -0.025
 -0.030
 -0.040
 -0.020
  0.025
  0.040
  0.045
  0.045
  0.030
  0.045
  0.040
  0.030
  0.005
  0.010
  0.015
  0.045
  0.045
  0.055
  0.045
  0.020
 -0.005
 -0.005
  0.000
  0.000
  0.000
 -0.005
 -0.015
 -0.025
 -0.005
 -0.005
 -0.020
 -0.020
  0.000
  0.015
  0.035
  0.035
  0.005
 -0.025
 -0.040
 -0.020
 -0.005
  0.010
  0.010
  0.025
  0.040
  0.070
  0.055
  0.045
  0.010
  0.005
 -0.010
  0.020
  0.040
  0.050
  0.075
  0.070
  0.060
  0.035
 -0.005
 -0.055
 -0.085
 -0.125
 -0.125
 -0.125
 -0.110
 -0.100
 -0.120
 -0.125
 -0.135
 -0.140
 -0.130
 -0.125
 -0.120
 -0.110
 -0.110
 -0.100
 -0.090
 -0.110
 -0.120
 -0.150
 -0.170
 -0.170
 -0.180
 -0.175
 -0.185
 -0.200
 -0.205
 -0.210
 -0.195
 -0.200
 -0.215
 -0.230
 -0.245
 -0.240
 -0.235
 -0.210
 -0.175
 -0.180
 -0.160
 -0.175
 -0.180
 -0.205
 -0.210
 -0.195
 -0.155
 -0.090
 -0.070
 -0.055
 -0.080
 -0.115
 -0.090
 -0.050
 -0.025
 -0.025
 -0.040
 -0.055
 -0.060
 -0.020
  0.010
  0.040
  0.050
  0.030
  0.000
  0.015
  0.030
  0.025
  0.025
  0.010
  0.020
  0.030
  0.050
  0.045
  0.025
  0.000
 -0.015
  0.000
 -0.080
 -0.280
 -0.570
 -0.835
 -1.105
 -1.365
 -1.660
 -2.010
 -2.330
 -2.545
 -2.620
 -2.590
 -2.450
 -2.160
 -1.645
 -1.010
 -0.400
 -0.015
  0.165
  0.255
  0.270
  0.225
  0.175
  0.180
  0.225
  0.280
  0.305
  0.300
  0.280
  0.275
  0.260
  0.235
  0.245
  0.240
  0.220
  0.220
  0.230
  0.270
  0.290
  0.285
  0.275
  0.270
  0.265
  0.275
  0.280
  0.275
  0.270
  0.280
  0.290
  0.285
  0.275
  0.255
  0.255
  0.280
  0.295
  0.310
  0.300
  0.275
  0.235
  0.220
  0.235
  0.220
  0.225
  0.220
  0.225
  0.265
  0.295
  0.300
  0.285
  0.245
  0.220
  0.255
  0.290
  0.305
  0.250
  0.200
  0.190
  0.220
  0.230
  0.215
  0.180
  0.155
  0.145
  0.150
  0.140
  0.135
  0.130
  0.110
  0.095
  0.115
  0.140
  0.150
  0.125
  0.045
 -0.035
 -0.050
 -0.040
 -0.040
 -0.025
 -0.045
 -0.050
 -0.045
 -0.060
 -0.070
 -0.075
 -0.095
 -0.110
 -0.115
 -0.145
 -0.140
 -0.120
 -0.120
 -0.135
 -0.125
 -0.105
 -0.085
 -0.070
 -0.035
 -0.025
 -0.050
 -0.075
 -0.110
 -0.115
 -0.100
 -0.080
 -0.085
 -0.095
 -0.095
 -0.085
 -0.075
 -0.065
 -0.085
 -0.060
 -0.015
  0.020
  0.010
  0.005
  0.000
  0.010
  0.005
 -0.025
 -0.035
  0.005
  0.045
  0.090
  0.100
  0.065
  0.030
  0.025
  0.050
  0.075
  0.095
  0.075
  0.060
  0.055
  0.065
  0.080
  0.065
  0.060
  0.055
  0.100
  0.150
  0.175
  0.150
  0.135
  0.135
  0.135
  0.160
  0.170
  0.175
  0.170
  0.145
  0.120
  0.110
  0.120
  0.115
  0.105
  0.095
  0.095
  0.110
  0.120
  0.105
  0.080
  0.075
  0.065
  0.085
  0.100
  0.130
  0.120
  0.130
  0.145
  0.155
  0.155
  0.150
  0.155
  0.155
  0.145
  0.155
  0.170
  0.195
  0.155
  0.070
  0.005
 -0.035
 -0.040
 -0.070
 -0.065
 -0.085
 -0.090
 -0.055
 -0.050
 -0.050
 -0.060
 -0.080
 -0.055
 -0.045
 -0.060
 -0.080
 -0.095
 -0.115
 -0.105
 -0.120
 -0.115
 -0.100
 -0.100
 -0.145
 -0.185
 -0.195
 -0.180
 -0.170
 -0.170
 -0.170
 -0.145
 -0.125
 -0.125
 -0.125
 -0.145
 -0.175
 -0.185
 -0.190
 -0.175
 -0.155
 -0.135
 -0.130
 -0.145
 -0.150
 -0.130
 -0.100
 -0.065
 -0.065
 -0.055
 -0.025
  0.005
  0.020
  0.010
 -0.020
 -0.030
  0.005
  0.005
  0.030
  0.030
  0.015
  0.000
 -0.010
 -0.015
 -0.010
  0.000
  0.000
  0.025
  0.050
  0.055
  0.010
 -0.035
 -0.060
 -0.060
 -0.140
 -0.350
 -0.625
 -0.890
 -1.210
 -1.605
 -2.010
 -2.325
 -2.525
 -2.630
 -2.660
 -2.615
 -2.420
 -2.045
 -1.410
 -0.775
 -0.140
  0.165
  0.270
  0.325
  0.305
  0.270
  0.245
  0.235
  0.255
  0.295
  0.300
  0.300
  0.305
  0.305
  0.295
  0.290
  0.300
  0.300
  0.290
  0.295
  0.320
  0.350
  0.355
  0.335
  0.290
  0.290
  0.315
  0.330
  0.345
  0.325
  0.310
  0.300
  0.315
  0.330
  0.345
  0.365
  0.355
  0.335
  0.330
  0.315
  0.325
  0.325
  0.325
  0.320
  0.330
  0.340
  0.335
  0.340
  0.340
  0.335
  0.340
  0.340
  0.315
  0.315
  0.300
  0.295
  0.280
  0.280
  0.285
  0.275
  0.285
  0.285
  0.275
  0.280
  0.300
  0.295
  0.265
  0.235
  0.230
  0.225
  0.225
  0.220
  0.210
  0.180
  0.170
  0.155
  0.130
  0.095
  0.065
  0.065
  0.070
  0.055
  0.040
  0.025
  0.015
  0.000
  0.005
  0.000
 -0.020
 -0.055
 -0.045
 -0.050
 -0.030
 -0.060
 -0.065
 -0.090
 -0.125
 -0.135
 -0.155
 -0.145
 -0.120
 -0.120
 -0.120
 -0.115
 -0.105
 -0.095
 -0.070
 -0.065
 -0.075
 -0.060
 -0.035
 -0.005
 -0.015
 -0.020
 -0.020
 -0.030
 -0.015
 -0.005
  0.005
  0.015
  0.030
  0.030
  0.030
  0.010
 -0.010
  0.010
  0.045
  0.085
  0.110
  0.115
  0.115
  0.120
  0.115
  0.110
  0.100
  0.090
  0.100
  0.115
  0.155
  0.155
  0.165
  0.185
  0.150
  0.150
  0.160
  0.155
  0.170
  0.190
  0.200
  0.215
  0.215
  0.210
  0.200
  0.220
  0.220
  0.210
  0.200
  0.170
  0.160
  0.170
  0.180
  0.210
  0.215
  0.190
  0.155
  0.165
  0.160
  0.180
  0.170
  0.155
  0.165
  0.180
  0.175
  0.155
  0.125
  0.120
  0.135
  0.135
  0.130
  0.125
  0.145
  0.160
  0.215
  0.240
  0.230
  0.195
  0.170
  0.155
  0.150
  0.165
  0.195
  0.210
  0.215
  0.190
  0.185
  0.155
  0.095
  0.050
  0.000
 -0.025
 -0.025
  0.000
  0.000
 -0.010
 -0.030
 -0.035
 -0.020
  0.000
  0.030
  0.015
  0.000
  0.000
 -0.010
 -0.020
 -0.055
 -0.055
 -0.035
 -0.015
 -0.005
 -0.020
 -0.055
 -0.100
 -0.135
 -0.135
 -0.130
 -0.135
 -0.115
 -0.125
 -0.120
 -0.125
 -0.115
 -0.095
 -0.090
 -0.095
 -0.110
 -0.100
 -0.070
 -0.070
 -0.060
 -0.045
 -0.045
 -0.025
 -0.005
  0.035
  0.045
  0.055
  0.055
  0.055
  0.070
  0.085
  0.095
  0.090
  0.065
  0.055
  0.075
  0.085
  0.110
  0.100
  0.075
  0.055
  0.085
  0.130
  0.130
  0.115
  0.105
  0.105
  0.110
  0.075
  0.040
  0.045
  0.060
 -0.040
 -0.260
 -0.520
 -0.755
 -1.005
 -1.335
 -1.665
 -1.990
 -2.260
 -2.395
 -2.430
 -2.380
 -2.220
 -1.875
 -1.335
 -0.715
 -0.240
  0.035
  0.160
  0.245
  0.285
  0.295
  0.250
  0.220
  0.235
  0.275
  0.325
  0.325
  0.310
  0.265
  0.250
  0.280
  0.300
  0.310
  0.280
  0.290
  0.275
  0.265
  0.275
  0.300
  0.300
  0.320
  0.330
  0.320
  0.305
  0.255
  0.260
  0.255
  0.255
  0.260
  0.275
  0.290
  0.290
  0.275
  0.265
  0.300
  0.305
  0.310
  0.280
  0.255
  0.245
  0.265
  0.280
  0.280
  0.295
  0.280
  0.255
  0.260
  0.290
  0.300
  0.305
  0.300
  0.280
  0.270
  0.265
  0.250
  0.235
  0.220
  0.245
  0.260
  0.255
  0.260
  0.245
  0.230
  0.195
  0.185
  0.165
  0.145
  0.135
  0.125
  0.105
  0.095
  0.105
  0.105
  0.100
  0.095
  0.090
  0.085
  0.060
  0.030
  0.000
 -0.015
 -0.030
 -0.050
 -0.055
 -0.040
 -0.015
 -0.005
 -0.030
 -0.050
 -0.065
 -0.090
 -0.125
 -0.160
 -0.160
 -0.155
 -0.135
 -0.130
 -0.125
 -0.115
 -0.130
 -0.130
 -0.120
 -0.110
 -0.125
 -0.140
 -0.155
 -0.155
 -0.130
 -0.125
 -0.130
 -0.130
 -0.125
 -0.115
 -0.100
 -0.085
 -0.090
 -0.095
 -0.085
 -0.070
 -0.050
 -0.030
 -0.025
 -0.015
 -0.005
  0.015
  0.025
  0.015
 -0.015
 -0.020
 -0.030
 -0.020
 -0.015
  0.005
  0.015
  0.005
  0.000
  0.010
  0.025
  0.040
  0.045
  0.035
  0.010
 -0.005
  0.030
  0.070
  0.095
  0.090
  0.075
  0.075
  0.090
  0.100
  0.090
  0.080
  0.085
  0.095
  0.115
  0.115
  0.105
  0.095
  0.095
  0.120
  0.145
  0.150
  0.155
  0.155
  0.115
  0.090
  0.120
  0.150
  0.155
  0.140
  0.145
  0.145
  0.140
  0.130
  0.125
  0.130
  0.140
  0.145
  0.160
  0.165
  0.165
  0.150
  0.130
  0.120
  0.130
  0.135
  0.140
  0.145
  0.140
  0.125
  0.145
  0.165
  0.170
  0.140
  0.120
  0.095
  0.100
  0.105
  0.135
  0.135
  0.130
  0.135
  0.165
  0.170
  0.170
  0.175
  0.170
  0.175
  0.200
  0.210
  0.190
  0.150
  0.080
  0.020
 -0.030
 -0.060
 -0.070
 -0.085
 -0.100
 -0.085
 -0.040
 -0.040
 -0.030
 -0.025
 -0.030
 -0.020
 -0.025
 -0.030
 -0.060
 -0.065
 -0.075
 -0.070
 -0.060
 -0.060
 -0.070
 -0.065
 -0.070
 -0.085
 -0.090
 -0.105
 -0.110
 -0.125
 -0.130
 -0.125
 -0.110
 -0.115
 -0.120
 -0.145
 -0.155
 -0.150
 -0.145
 -0.140
 -0.140
 -0.140
 -0.125
 -0.105
 -0.105
 -0.115
 -0.120
 -0.140
 -0.145
 -0.145
 -0.110
 -0.080
 -0.055
 -0.040
 -0.045
 -0.030
 -0.015
  0.005
 -0.005
  0.000
  0.010
  0.040
  0.055
  0.040
  0.025
  0.000
  0.000
  0.000
  0.035
  0.055
  0.065
  0.060
  0.060
  0.065
  0.100
  0.110
  0.115
  0.095
  0.075
  0.070
  0.070
  0.055
  0.050
  0.040
  0.035
  0.040
 -0.040
 -0.270
 -0.565
 -0.860
 -1.175
 -1.515
 -1.840
 -2.165
 -2.435
 -2.605
 -2.680
 -2.695
 -2.655
 -2.560
 -2.365
 -2.020
 -1.450
 -0.815
 -0.180
  0.140
  0.295
  0.330
  0.330
  0.295
  0.265
  0.260
  0.275
  0.310
  0.320
  0.315
  0.335
  0.340
  0.350
  0.340
  0.330
  0.325
  0.340
  0.365
  0.355
  0.355
  0.335
  0.340
  0.355
  0.345
  0.340
  0.325
  0.300
  0.295
  0.305
  0.310
  0.310
  0.305
  0.310
  0.330
  0.335
  0.320
  0.325
  0.315
  0.310
  0.325
  0.340
  0.340
  0.335
  0.325
  0.315
  0.305
  0.300
  0.310
  0.300
  0.310
  0.310
  0.300
  0.320
  0.325
  0.335
  0.325
  0.315
  0.335
  0.330
  0.330
  0.325
  0.325
  0.315
  0.325
  0.310
  0.280
  0.265
  0.250
  0.245
  0.245
  0.250
  0.250
  0.240
  0.215
  0.185
  0.180
  0.175
  0.155
  0.140
  0.100
  0.085
  0.120
  0.110
  0.110
  0.095
  0.065
  0.050
  0.045
  0.040
  0.025
  0.000
 -0.040
 -0.050
 -0.060
 -0.075
 -0.060
 -0.065
 -0.085
 -0.100
 -0.095
 -0.095
 -0.100
 -0.115
 -0.130
 -0.145
 -0.140
 -0.130
 -0.115
 -0.115
 -0.115
 -0.110
 -0.095
 -0.075
 -0.080
 -0.095
 -0.105
 -0.090
 -0.080
 -0.055
 -0.030
 -0.015
 -0.025
 -0.040
 -0.025
 -0.015
 -0.010
  0.010
  0.000
 -0.015
 -0.015
  0.015
  0.020
  0.025
  0.025
  0.030
  0.060
  0.070
  0.075
  0.060
  0.060
  0.070
  0.090
  0.110
  0.110
  0.105
  0.095
  0.090
  0.120
  0.130
  0.140
  0.140
  0.150
  0.150
  0.150
  0.165
  0.175
  0.165
  0.155
  0.155
  0.175
  0.185
  0.175
  0.195
  0.185
  0.185
  0.180
  0.195
  0.215
  0.235
  0.225
  0.215
  0.210
  0.205
  0.205
  0.200
  0.210
  0.195
  0.190
  0.200
  0.210
  0.215
  0.210
  0.185
  0.185
  0.170
  0.170
  0.180
  0.170
  0.155
  0.160
  0.175
  0.190
  0.170
  0.155
  0.130
  0.110
  0.110
  0.120
  0.120
  0.125
  0.125
  0.130
  0.155
  0.170
  0.165
  0.155
  0.150
  0.155
  0.175
  0.190
  0.185
  0.190
  0.175
  0.175
  0.180
  0.185
  0.180
  0.175
  0.165
  0.150
  0.175
  0.180
  0.185
  0.160
  0.130
  0.080
  0.050
  0.020
  0.020
 -0.010
 -0.005
  0.015
  0.020
  0.020
  0.015
 -0.010
  0.000
  0.010
  0.015
  0.030
  0.025
  0.000
 -0.025
 -0.035
 -0.020
 -0.005
 -0.010
 -0.025
 -0.030
 -0.040
 -0.015
 -0.025
 -0.035
 -0.050
 -0.050
 -0.055
 -0.065
 -0.075
 -0.065
 -0.080
 -0.090
 -0.080
 -0.055
 -0.045
 -0.050
 -0.070
 -0.095
 -0.095
 -0.090
 -0.090
 -0.085
 -0.090
 -0.100
 -0.080
 -0.060
 -0.060
 -0.060
 -0.065
 -0.065
 -0.065
 -0.055
 -0.055
 -0.050
 -0.045
 -0.020
  0.005
  0.045
  0.060
  0.070
  0.070
  0.065
  0.080
  0.095
  0.105
  0.115
  0.105
  0.110
  0.130
  0.130
  0.110
  0.085
  0.075
  0.055
  0.060
  0.060
  0.090
  0.115
  0.110
  0.095
  0.095
  0.100
  0.120
  0.110
  0.090
  0.055
  0.030
 -0.010
 -0.010
  0.010
 -0.030
 -0.165
 -0.370
 -0.575
 -0.770
 -1.000
 -1.260
 -1.565
 -1.855
 -2.125
 -2.310
 -2.425
 -2.465
 -2.455
 -2.385
 -2.225
 -1.980
 -1.640
 -1.255
 -0.835
 -0.435
 -0.090
  0.140
  0.225
  0.285
  0.310
  0.310
  0.315
  0.295
  0.290
  0.290
  0.280
  0.290
  0.320
  0.340
  0.345
  0.325
  0.320
  0.310
  0.325
  0.335
  0.345
  0.335
  0.320
  0.340
  0.335
  0.330
  0.345
  0.335
  0.320
  0.325
  0.355
  0.360
  0.365
  0.335
  0.320
  0.310
  0.310
  0.315
  0.330
  0.335
  0.325
  0.330
  0.350
  0.375
  0.370
  0.350
  0.325
  0.305
  0.310
  0.300
  0.315
  0.320
  0.325
  0.325
  0.325
  0.330
  0.330
  0.300
  0.275
  0.275
  0.300
  0.350
  0.360
  0.355
  0.345
  0.345
  0.345
  0.340
  0.325
  0.305
  0.300
  0.290
  0.305
  0.320
  0.325
  0.325
  0.290
  0.265
  0.265
  0.255
  0.235
  0.230
  0.230
  0.215
  0.195
  0.195
  0.180
  0.170
  0.150
  0.120
  0.120
  0.105
  0.065
  0.055
  0.055
  0.070
  0.075
  0.050
  0.045
  0.010
 -0.005
  0.000
  0.005
 -0.015
 -0.045
 -0.080
 -0.085
 -0.070
 -0.055
 -0.050
 -0.060
 -0.075
 -0.090
 -0.100
 -0.090
 -0.060
 -0.060
 -0.085
 -0.100
 -0.105
 -0.085
 -0.080
 -0.065
 -0.075
 -0.080
 -0.080
 -0.060
 -0.030
 -0.020
 -0.035
 -0.040
 -0.035
 -0.025
 -0.015
 -0.015
 -0.005
  0.000
  0.000
  0.020
  0.035
  0.040
  0.015
  0.020
  0.015
  0.030
  0.020
  0.005
  0.010
  0.045
  0.060
  0.075
  0.070
  0.055
  0.040
  0.040
  0.045
  0.065
  0.100
  0.115
  0.100
  0.090
  0.095
  0.110
  0.120
  0.135
  0.125
  0.135
  0.155
  0.175
  0.195
  0.200
  0.195
  0.200
  0.205
  0.195
  0.180
  0.150
  0.140
  0.165
  0.175
  0.205
  0.185
  0.175
  0.160
  0.160
  0.145
  0.170
  0.185
  0.200
  0.190
  0.185
  0.175
  0.155
  0.150
  0.135
  0.135
  0.130
  0.120
  0.145
  0.165
  0.155
  0.150
  0.145
  0.145
  0.155
  0.155
  0.155
  0.150
  0.135
  0.130
  0.130
  0.135
  0.135
  0.130
  0.130
  0.120
  0.155
  0.175
  0.185
  0.200
  0.205
  0.200
  0.190
  0.175
  0.130
  0.090
  0.045
  0.000
 -0.010
 -0.030
 -0.040
 -0.040
 -0.030
 -0.020
  0.015
  0.035
  0.020
 -0.005
 -0.015
 -0.005
 -0.010
  0.000
 -0.010
 -0.010
 -0.035
 -0.045
 -0.040
 -0.030
 -0.040
 -0.060
 -0.050
 -0.035
 -0.020
 -0.025
 -0.055
 -0.075
 -0.085
 -0.120
 -0.110
 -0.095
 -0.105
 -0.105
 -0.105
 -0.110
 -0.085
 -0.075
 -0.070
 -0.070
 -0.080
 -0.095
 -0.085
 -0.060
 -0.050
 -0.075
 -0.075
 -0.075
 -0.050
 -0.030
 -0.050
 -0.040
 -0.025
 -0.010
  0.015
  0.060
  0.080
  0.100
  0.115
  0.115
  0.110
  0.105
  0.090
  0.080
  0.080
  0.090
  0.105
  0.105
  0.105
  0.115
  0.105
  0.095
  0.100
  0.090
  0.095
  0.090
  0.105
  0.100
  0.120
  0.130
  0.135
  0.130
  0.130
  0.055
 -0.070
 -0.295
 -0.535
 -0.820
 -1.140
 -1.480
 -1.810
 -2.105
 -2.335
 -2.475
 -2.525
 -2.535
 -2.440
 -2.265
 -1.980
 -1.565
 -1.060
 -0.570
 -0.140
  0.120
  0.255
  0.320
  0.335
  0.305
  0.310
  0.300
  0.335
  0.355
  0.365
  0.370
  0.370
  0.380
  0.370
  0.360
  0.350
  0.330
  0.340
  0.350
  0.350
  0.355
  0.370
  0.370
  0.395
  0.410
  0.405
  0.375
  0.380
  0.350
  0.370
  0.395
  0.390
  0.375
  0.360
  0.350
  0.360
  0.370
  0.360
  0.360
  0.355
  0.355
  0.385
  0.385
  0.385
  0.380
  0.370
  0.365
  0.375
  0.385
  0.385
  0.360
  0.335
  0.335
  0.365
  0.375
  0.365
  0.350
  0.345
  0.335
  0.360
  0.375
  0.360
  0.340
  0.335
  0.330
  0.340
  0.340
  0.335
  0.330
  0.320
  0.330
  0.345
  0.335
  0.315
  0.290
  0.275
  0.255
  0.255
  0.270
  0.280
  0.260
  0.245
  0.220
  0.200
  0.195
  0.190
  0.175
  0.145
  0.125
  0.105
  0.115
  0.110
  0.060
  0.055
  0.060
  0.080
  0.085
  0.070
  0.040
  0.030
  0.005
  0.020
  0.035
  0.020
  0.000
 -0.005
 -0.005
  0.005
  0.005
 -0.015
 -0.030
 -0.050
 -0.055
 -0.040
 -0.035
 -0.040
 -0.050
 -0.050
 -0.030
 -0.020
  0.005
  0.005
 -0.005
  0.000
  0.005
  0.010
  0.025
  0.035
  0.035
  0.045
  0.035
  0.060
  0.075
  0.065
  0.040
  0.010
  0.010
  0.045
  0.065
  0.070
  0.085
  0.080
  0.080
  0.085
  0.095
  0.115
  0.095
  0.090
  0.110
  0.140
  0.160
  0.150
  0.145
  0.140
  0.135
  0.155
  0.165
  0.175
  0.180
  0.180
  0.180
  0.195
  0.210
  0.230
  0.215
  0.195
  0.180
  0.200
  0.210
  0.220
  0.225
  0.235
  0.225
  0.245
  0.265
  0.275
  0.265
  0.240
  0.210
  0.210
  0.195
  0.190
  0.210
  0.225
  0.225
  0.260
  0.265
  0.270
  0.260
  0.250
  0.220
  0.220
  0.225
  0.230
  0.225
  0.205
  0.185
  0.185
  0.160
  0.160
  0.165
  0.165
  0.180
  0.190
  0.195
  0.200
  0.170
  0.150
  0.160
  0.170
  0.175
  0.175
  0.175
  0.175
  0.180
  0.210
  0.225
  0.210
  0.210
  0.190
  0.190
  0.200
  0.225
  0.225
  0.200
  0.175
  0.195
  0.215
  0.215
  0.205
  0.150
  0.075
  0.040
  0.030
  0.020
  0.010
  0.005
  0.010
  0.010
  0.030
  0.050
  0.070
  0.035
  0.000
 -0.005
  0.010
  0.025
  0.020
  0.005
 -0.010
 -0.020
 -0.020
 -0.020
 -0.035
 -0.035
 -0.025
 -0.030
 -0.010
 -0.010
 -0.025
 -0.040
 -0.065
 -0.075
 -0.085
 -0.070
 -0.065
 -0.070
 -0.085
 -0.080
 -0.065
 -0.060
 -0.080
 -0.075
 -0.065
 -0.060
 -0.060
 -0.045
 -0.030
 -0.015
 -0.005
 -0.025
 -0.020
 -0.005
  0.020
  0.045
  0.050
  0.055
  0.075
  0.090
  0.100
  0.075
  0.050
  0.060
  0.100
  0.140
  0.130
  0.120
  0.100
  0.085
  0.090
  0.095
  0.100
  0.100
  0.095
  0.110
  0.125
  0.105
  0.075
  0.030
  0.000
 -0.025
 -0.035
 -0.020
 -0.100
 -0.315
 -0.590
 -0.900
 -1.220
 -1.600
 -1.980
 -2.315
 -2.515
 -2.565
 -2.500
 -2.320
 -2.010
 -1.495
 -0.865
 -0.285
  0.090
  0.275
  0.365
  0.360
  0.355
  0.310
  0.305
  0.320
  0.335
  0.335
  0.345
  0.340
  0.375
  0.375
  0.345
  0.310
  0.305
  0.325
  0.345
  0.360
  0.355
  0.350
  0.325
  0.305
  0.330
  0.370
  0.390
  0.380
  0.365
  0.340
  0.345
  0.345
  0.340
  0.315
  0.325
  0.315
  0.320
  0.320
  0.330
  0.340
  0.340
  0.345
  0.345
  0.335
  0.335
  0.335
  0.340
  0.340
  0.350
  0.375
  0.365
  0.355
  0.345
  0.340
  0.330
  0.315
  0.300
  0.300
  0.300
  0.290
  0.280
  0.260
  0.260
  0.260
  0.245
  0.240
  0.265
  0.290
  0.280
  0.255
  0.225
  0.205
  0.190
  0.165
  0.130
  0.105
  0.090
  0.095
  0.105
  0.095
  0.090
  0.045
  0.005
 -0.010
 -0.015
 -0.020
 -0.020
 -0.040
 -0.055
 -0.060
 -0.060
 -0.050
 -0.070
 -0.095
 -0.095
 -0.100
 -0.085
 -0.070
 -0.055
 -0.075
 -0.085
 -0.090
 -0.070
